# Height(km) CO2+ProductionRate(cm^-3s^-1)
105 167110.59284406071
106 166991.77058761017
107 165472.12324626482
108 162683.60632214736
109 158778.48482091934
110 153920.80231596128
111 148278.69905358765
112 142017.87014671264
113 135296.31305748405
114 128260.3936756403
115 121042.16665766777
116 113757.81953216795
117 106507.07005117269
118 99373.329020951307
119 92424.441756806133
120 85713.835274687313
121 79281.920466376672
122 73157.624599390954
123 67359.956266831563
124 61899.53009894921
125 56780.000744213386
126 51999.37416849508
127 47551.179078992442
128 43425.49248277615
129 39609.821469912626
130 36089.848787985706
131 32850.053177454174
132 29874.217254881667
133 27145.836387755444
134 24648.441850332998
135 22365.850861921601
136 20282.355098842996
137 18382.858094958421
138 16652.9707135633
139 15079.072660631969
140 13648.346863654862
141 12348.792489542882
142 11169.221432883765
143 10099.242275982429
144 9129.2350018695961
145 8250.3191240654305
146 7454.3173733363174
147 6733.7166419741325
148 6081.6275200744512
149 5491.743456070878
150 4958.3003262564216
151 4476.0369969013891
152 4040.1573004906095
153 3646.2937180986078
154 3290.4729574209468
155 2969.0835357101578
156 2678.8454147781677
157 2416.7816879179263
158 2180.1922832192081
159 1966.6296219434826
160 1773.8761524288736
161 1599.9236678153409
162 1442.954308403976
163 1301.3231456271769
164 1173.5422435497642
165 1058.2660948522357
166 954.27833081409631
167 860.47960847829313
168 775.87658259137504
169 699.57187480707762
170 630.75495780425547
171 568.69387724277419
172 512.72773974219638
173 462.25990022821827
174 416.75178698617714
175 375.71730754458827
176 338.7177830549299
177 305.35736311911455
178 275.27887703470395
179 248.16008117833383
180 223.71026573356605
181 201.66718719776117
182 181.79429608356514
183 163.87823197583009
184 147.72656062738022
185 133.1657300899991
186 120.03922499443904
187 108.20590002838873
188 97.538475427560996
189 87.922178905118386
190 79.253519910766784
191 71.439183444583904
192 64.395031862917449
193 58.045204214691324
194 52.321303645717563
195 47.161664314956575
196 42.510690088282303
197 38.318258019728511
198 34.539180304368038
199 31.132718997278808
200 28.062148345327678
201 25.294360078100297
202 22.799507456110323
203 20.55068428289087
204 18.523635456768975
205 16.696495971748927
206 15.049555578346389
207 13.565046587480293
208 12.226952546420273
209 11.020835737822036
210 9.9336816533504368
211 8.9537587743558973
212 8.0704921554169289
213 7.2743494539851206
214 6.5567381824094424
215 5.9099130786660004
216 5.3268926004360537
217 4.8013836449007146
218 4.3277136847783622
219 3.9007695906644142
220 3.515942481458064
221 3.1690780093813919
222 2.8564315444367399
223 2.5746277757984308
224 2.3206242950752576
225 2.0916787692250463
226 1.8853193494634899
227 1.6993179973428465
228 1.5316664405546723
229 1.3805544993135386
230 1.2443505496972926
231 1.1215839133279955
232 1.0109289835227826
233 0.91119091674767805
234 0.82129273507049438
235 0.7402637005121494
236 0.66722883590227833
237 0.60139947920180592
238 0.54206476939549375
239 0.48858397210012022
240 0.44037956208785645
241 0.39693098808615085
242 0.35776905257319597
243 0.32247084592082925
244 0.29065518021592818
245 0.2619784734813424
246 0.2361310398761958
247 0.21283374583528306
248 0.19183499605548743
249 0.17290801679614526
250 0.1558484071684523
251 0.14047193198089858
252 0.12661253231449629
253 0.11412053235139318
254 0.10286102309838972
255 0.092712405556403921
256 0.083565077607620747
257 0.075320250443518907
258 0.067888881755208089
259 0.06119071416792813
260 0.055153408537667099
261 0.049711762751922919
262 0.04480700759969624
263 0.040386172107833129
264 0.036401511490801342
265 0.03280999153698113
266 0.029572823863873037
267 0.02665504702384661
268 0.024025148937101989
269 0.021654726574734239
270 0.019518179216993298
271 0.017592431974361767
272 0.015856686585841422
273 0.014292196803374466
274 0.01288206593680594
275 0.011611064373086236
276 0.010465465099098821
277 0.0094328954519082974
278 0.0085022034954549339
279 0.0076633375806666581
280 0.0069072377883229227
281 0.0062257380823237968
282 0.0056114781166778137
283 0.005057823743771876
284 0.0045587953654516143
285 0.004109003353137494
286 0.0037035898395360455
287 0.0033381762533234074
288 0.0030088160301884881
289 0.0027119519895304075
290 0.0024443779164890276
291 0.0022032039344046152
292 0.0019858252937256303
293 0.0017898942403159325
294 0.0016132946593068623
295 0.0014541192206784003
296 0.0013106487797319584
297 0.0011813338099818135
298 0.0010647776679488811
299 0.0009597215090966268
300 0.00086503069202897799
301 0.00077968252409359889
302 0.0007027552160514699
303 0.00063341792652098856
304 0.00057092178867581211
305 0.0005145918222839535
306 0.00046381964373728513
307 0.00041805689533888515
308 0.00037680932288364954
309 0.00033963143756916782
310 0.00030612170458465599
311 0.00027591820641388522
312 0.00024869473401499471
313 0.00022415726366118268
314 0.000202040781391448
315 0.00018210642077477998
316 0.00016413888307502411
317 0.0001479441119536162
318 0.00013334719759642525
319 0.00012019048762898774
320 0.00010833188441617584
321 9.7643310360206732e-05
322 8.8009324616998406e-05
323 7.9325876294624107e-05
324 7.1499180667241192e-05
325 6.444470626574708e-05
326 5.8086261907914701e-05
327 5.235517380576419e-05
328 4.7189543863464848e-05
329 4.2533581155025532e-05
330 3.8336999361525466e-05
331 3.4554473660018517e-05
332 3.1145151198338356e-05
333 2.8072209868774325e-05
334 2.5302460615229795e-05
335 2.2805988978648757e-05
336 2.0555832009281301e-05
337 1.8527687056331486e-05
338 1.6699649289816012e-05
339 1.5051975119779455e-05
340 1.356686895771103e-05
341 1.2228291017111246e-05
342 1.1021784077386454e-05
343 9.9343173400593479e-06
344 8.9541456908861751e-06
345 8.0706828478603896e-06
346 7.2743870250548962e-06
347 6.5566578774297132e-06
348 5.9097436135714144e-06
349 5.3266572731466253e-06
350 4.8011012648347993e-06
351 4.327399349721337e-06
352 3.9004353355457339e-06
353 3.5155978196791592e-06
354 3.1687303840433426e-06
355 2.8560867040008908e-06
356 2.5742900865183858e-06
357 2.3202970004031345e-06
358 2.0913642048761778e-06
359 1.8850191213953604e-06
360 1.6990331287429299e-06
361 1.5313974929539207e-06
362 1.3803016721188903e-06
363 1.2441137617441088e-06
364 1.1213628694711664e-06
365 1.0107232287957863e-06
366 9.1099988020751612e-07
367 8.2111576510071685e-07
368 7.4010009306576812e-07
369 6.6707785692241186e-07
370 6.0126038225324298e-07
371 5.4193680936835542e-07
372 4.8846641570279626e-07
373 4.402716957254894e-07
374 3.9683212361972447e-07
375 3.576785313695164e-07
376 3.2238804153277732e-07
377 2.9057949997308869e-07
378 2.6190935922162098e-07
379 2.3606796800773946e-07
380 2.1277622688362834e-07
381 1.9178257382223029e-07
382 1.7286026723165215e-07
383 1.5580493704140794e-07
384 1.4043237741116219e-07
385 1.2657655722225852e-07
386 1.1408782686446946e-07
387 1.0283130195047172e-07
388 9.2685406501449728e-08
389 8.3540559869584321e-08
390 7.5297993215605968e-08
391 6.7868682758841275e-08
392 6.1172388278376284e-08
393 5.5136786480716685e-08
394 4.9696689873926205e-08
395 4.4793342711730809e-08
396 4.0373786403466283e-08
397 3.6390287536008503e-08
398 3.2799822330062778e-08
399 2.9563611962704982e-08
400 2.6646703737444944e-08
401 2.4017593578256724e-08
402 2.1647885770337478e-08
403 1.9511986272638093e-08
404 1.7586826289799083e-08
405 1.5851613117940372e-08
406 1.4287605573323657e-08
407 1.2877911578412185e-08
408 1.1607305719162821e-08
409 1.0462064803083621e-08
410 9.4298196420067191e-09
411 8.4994214587593894e-09
412 7.6608214748700752e-09
413 6.9049623787796765e-09
414 6.2236805023905717e-09
415 5.6096176493925748e-09
416 5.0561416230784131e-09
417 4.557274595309587e-09
418 4.1076285429832595e-09
419 3.7023470546829383e-09
420 3.3370528789968303e-09
421 3.0078006480003633e-09
422 2.7110342652937742e-09
423 2.443548498364732e-09
424 2.2024543604550209e-09
425 1.9851479080385421e-09
426 1.7892821169081874e-09
427 1.6127415331195878e-09
428 1.4536194250095025e-09
429 1.3101971895194459e-09
430 1.1809257904027096e-09
431 1.0644090278382719e-09
432 9.593884587551549e-10
433 8.647298049992748e-10
434 7.7941070254423739e-10
435 7.02509659431473e-10
436 6.3319610317998672e-10
437 5.7072141017261165e-10
438 5.1441082013209414e-10
439 4.6365614835869002e-10
440 4.1790921701824746e-10
441 3.7667593453519219e-10
442 3.3951095914490322e-10
443 3.0601288896915208e-10
444 2.7581992666498322e-10
445 2.4860597182304617e-10
446 2.2407709891129437e-10
447 2.0196838272401171e-10
448 1.820410370496352e-10
449 1.6407983565290933e-10
450 1.4789078771750103e-10
451 1.3329904264201346e-10
452 1.2014700156038538e-10
453 1.0829261519007872e-10
454 9.7607849623935698e-11
455 8.7977303495515544e-11
456 7.9296961582269245e-11
457 7.1473071385618711e-11
458 6.4421130553326756e-11
459 5.8064974208636257e-11
460 5.2335952328510069e-11
461 4.7172188286285814e-11
462 4.251791055061896e-11
463 3.8322850322711443e-11
464 3.4541698605992215e-11
465 3.1133616844315943e-11
466 2.8061795843314845e-11
467 2.5293058211021227e-11
468 2.279750002390906e-11
469 2.0548167848158089e-11
470 1.8520767627798692e-11
471 1.6693402295574563e-11
472 1.5046335272581011e-11
473 1.3561777302348551e-11
474 1.2223694317066247e-11
475 1.1017634260796957e-11
476 9.9305709992825597e-12
477 8.9507636304810985e-12
478 8.0676296763140477e-12
479 7.2716307860262794e-12
480 6.5541697166932681e-12
481 5.907497478209419e-12
482 5.3246296398730704e-12
483 4.7992708946339628e-12
484 4.3257470662560403e-12
485 3.8989438250360124e-12
486 3.5142514501740079e-12
487 3.16751504219983e-12
488 2.8549896477218064e-12
489 2.573299811820868e-12
490 2.3194031212338226e-12
491 2.0905573445718078e-12
492 1.884290814670517e-12
493 1.6983757331851543e-12
494 1.530804109105046e-12
495 1.3797660713105804e-12
496 1.2436303209360978e-12
497 1.1209265124134287e-12
498 1.0103293729015723e-12
499 9.1064438858354193e-13
500 8.2079490323442138e-13
501 7.3981048971796964e-13
502 6.6681646881749636e-13
503 6.0102446219842567e-13
504 5.4172387746939096e-13
505 4.8827423337565477e-13
506 4.4009824223267253e-13
507 3.9667557488619295e-13
508 3.5753724085696623e-13
509 3.2226052297240864e-13
510 2.9046441177650512e-13
511 2.6180549040684146e-13
512 2.359742254932317e-13
513 2.1269162401749371e-13
514 1.917062200265732e-13
515 1.7279135865380571e-13
516 1.5574274811420228e-13
517 1.4037625323391396e-13
518 1.2652590668273522e-13
519 1.140421164298225e-13
520 1.0279005006212475e-13
521 9.2648178515239832e-14
522 8.3506963488156594e-14
523 7.5267674365207466e-14
524 6.7841321867309727e-14
525 6.1147696915315114e-14
526 5.5114504324638213e-14
527 4.967658197456643e-14
528 4.4775197018828557e-14
529 4.0357411536089894e-14
530 3.6375510769031428e-14
531 3.2786487776664194e-14
532 2.9551578933824463e-14
533 2.6635845260974597e-14
534 2.400779506242782e-14
535 2.163904379726989e-14
536 1.9504007509385441e-14
537 1.7579626505454118e-14
538 1.5845116296477517e-14
539 1.4281743112859539e-14
540 1.2872621568471651e-14
541 1.1602532288356083e-14
542 1.0457757530339234e-14
543 9.4259330251719779e-15
544 8.4959144349831859e-15
545 7.6576569877190777e-15
546 6.9021069875493446e-15
547 6.2211040294883284e-15
548 5.6072928620913554e-15
549 5.0540439462912017e-15
550 4.5553818523629713e-15
551 4.1059207216622058e-15
552 3.7008060960846208e-15
553 3.3356624869710382e-15
554 3.0065461171705167e-15
555 2.7099023258477664e-15
556 2.4425271759813611e-15
557 2.201532849890822e-15
558 1.9843164590435485e-15
559 1.7885319312688705e-15
560 1.6120646717442667e-15
561 1.4530087240772242e-15
562 1.3096461848086912e-15
563 1.1804286490024047e-15
564 1.0639604865212807e-15
565 9.5898376836459093e-16
566 8.6436468026126871e-16
567 7.7908127677796163e-16
568 7.0221244367879069e-16
569 6.329279493236338e-16
570 5.704794776540069e-16
571 5.1419254591735808e-16
572 4.6345921983629567e-16
573 4.1773154754215131e-16
574 3.765156413553714e-16
575 3.3936634349236601e-16
576 3.0588241808519591e-16
577 2.7570221758498366e-16
578 2.4849977674355816e-16
579 2.2398129198595103e-16
580 2.0188194814881244e-16
581 1.8196305831158147e-16
582 1.6400948582883446e-16
583 1.478273207201803e-16
584 1.3324178532128608e-16
585 1.200953465757836e-16
586 1.082460145796339e-16
587 9.7565809001201296e-17
588 8.7939376813414005e-17
589 7.9262746408672287e-17
590 7.1442204640175328e-17
591 6.4393284661019034e-17
592 5.8039853629101819e-17
593 5.2313290424485707e-17
594 4.7151744498051855e-17
595 4.2499467846555912e-17
596 3.8306212898999219e-17
597 3.452668981111482e-17
598 3.1120077306411351e-17
599 2.804958178055347e-17
