# Height(km) H+ProductionRate(cm^-3s^-1)
105 2.9102553992053877
106 3.2547403518129627
107 3.6030871288410942
108 3.9515161163015713
109 4.2965188613832481
110 4.6349396741880424
111 4.9640300146686727
112 5.2814775025141882
113 5.5854126576611778
114 5.874397249423688
115 6.147398449056916
116 6.4037529199945684
117 6.6431246366401373
118 6.8654596958865675
119 7.0709407673299189
120 7.259943194020904
121 7.4329941608308134
122 7.5907358269805227
123 7.7338928901822817
124 7.8632447157204703
125 7.9796019188652894
126 8.0837871220066368
127 8.1766195051095298
128 8.2589027155353065
129 8.3314156880219219
130 8.3949059365368868
131 8.450084907722001
132 8.4976250236714357
133 8.5381580845652003
134 8.5722747454910238
135 8.6005248241298151
136 8.6234182353020543
137 8.6414263838250314
138 8.6549838783628523
139 8.6644904559512064
140 8.6703130298504956
141 8.6727877926564378
142 8.6722223225690982
143 8.6688976538035192
144 8.6630702827211685
145 8.6549740897484444
146 8.6448221638689322
147 8.632808521732013
148 8.6191097174740747
149 8.6038863424251986
150 8.5872844161625519
151 8.569436672031264
152 8.5504637414146885
153 8.5304752418071139
154 8.509570774210566
155 8.4878408356144366
156 8.4653676523794452
157 8.4422259402807907
158 8.4184835968060714
159 8.3942023310789668
160 8.3694382365124866
161 8.3442423110011514
162 8.3186609291562377
163 8.2927362707760945
164 8.2665067094374454
165 8.2400071647948518
166 8.2132694218889792
167 8.1863224204923206
168 8.159192517264632
169 8.1319037232506624
170 8.1044779190294634
171 8.0769350496180401
172 8.049293301041299
173 8.0215692603050837
174 7.9937780603481539
175 7.9659335114020555
176 7.9380482200534583
177 7.9101336971813234
178 7.8822004558298415
179 7.8542580999770273
180 7.8263154050670094
181 7.7983803910907028
182 7.7704603889250325
183 7.7425621005698311
184 7.7146916538644623
185 7.686854652205561
186 7.6590562197396839
187 7.6313010424580847
188 7.6035934055797254
189 7.575937227571397
190 7.548336091120234
191 7.5207932713435763
192 7.4933117614936924
193 7.4658942963902009
194 7.4385433737907025
195 7.4112612738899637
196 7.3840500771198885
197 7.3569116804060029
198 7.329847812021475
199 7.3028600451662156
200 7.2759498103866518
201 7.2491184069407364
202 7.2223670132030149
203 7.195696696195637
204 7.1691084203231483
205 7.1426030553816755
206 7.1161813839065511
207 7.0898441079164529
208 7.0635918551069174
209 7.0374251845408278
210 7.0113445918798254
211 6.9853505141958054
212 6.9594433343986397
213 6.9336233853127514
214 6.9078909534323163
215 6.8822462823822264
216 6.8566895761090159
217 6.8312210018254271
218 6.8058406927267594
219 6.7805487505031126
220 6.7553452476533336
221 6.7302302296309966
222 6.7052037168228509
223 6.6802657063922988
224 6.6554161739606892
225 6.6306550751897317
226 6.6059823472344181
227 6.5813979100923392
228 6.5569016678547358
229 6.5324935098669572
230 6.5081733118053382
231 6.4839409366768619
232 6.4597962357475431
233 6.4357390494048961
234 6.4117692079594937
235 6.3878865323900875
236 6.3640908350369276
237 6.3403819202460321
238 6.316759584969498
239 6.2932236193239506
240 6.2697738071106235
241 6.2464099262997799
242 6.223131749482067
243 6.1999390442891329
244 6.1768315737857122
245 6.153809096835233
246 6.130871368440773
247 6.1080181400631011
248 6.0852491599174412
249 6.0625641732503981
250 6.0399629225984306
251 6.0174451480291493
252 5.9950105873662691
253 5.9726589764014255
254 5.9503900490884574
255 5.9282035377284572
256 5.9060991731408343
257 5.884076684823504
258 5.8621358011025473
259 5.8402762492720646
260 5.8184977557248692
261 5.7968000460746083
262 5.775182845269903
263 5.7536458777010138
264 5.7321888672995245
265 5.7108115376315176
266 5.6895136119846184
267 5.6682948134493749
268 5.6471548649952759
269 5.6260934895417893
270 5.6051104100247287
271 5.5842053494582471
272 5.563378030992757
273 5.5426281779690001
274 5.5219555139685523
275 5.5013597628609601
276 5.4808406488477344
277 5.4603978965034159
278 5.4400312308138643
279 5.4197403772119666
280 5.3995250616109391
281 5.3793850104353416
282 5.3593199506499838
283 5.3393296097868213
284 5.3194137159696968
285 5.2995719979388571
286 5.2798041850706978
287 5.2601100073991809
288 5.2404891956341473
289 5.220941481178639
290 5.2014665961449253
291 5.1820642733732196
292 5.1627342464296113
293 5.1434762496430713
294 5.1242900181005044
295 5.1051752876618117
296 5.0861317949698197
297 5.067159277453956
298 5.0482574733608958
299 5.0294261217278668
300 5.0106649624131485
301 4.9919737360963659
302 4.9733521842842316
303 4.9548000493157716
304 4.9363170743669933
305 4.9179030034550983
306 4.8995575814422239
307 4.8812805540387689
308 4.8630716678063086
309 4.8449306701601431
310 4.8268573093714835
311 4.8088513345693302
312 4.7909124957420097
313 4.7730405437384524
314 4.7552352302691769
315 4.7374963079070369
316 4.7198235300877105
317 4.7022166511099899
318 4.6846754261358345
319 4.66719961120035
320 4.649788963170475
321 4.6324432398069542
322 4.6151621997213885
323 4.5979456023784619
324 4.580793208126396
325 4.5637047781480646
326 4.5466800744921914
327 4.5297188600638201
328 4.5128208986228993
329 4.4959859547827703
330 4.4792137940085652
331 4.4625041826155085
332 4.4458568877671478
333 4.4292716774735039
334 4.4127483205891478
335 4.3962865868112173
336 4.3798862466773665
337 4.3635470715636657
338 4.3472688336824428
339 4.3310513060800746
340 4.3148942626347422
341 4.2987974780541327
342 4.282760727873109
343 4.2667837884513364
344 4.2508664369708962
345 4.2350084514338366
346 4.2192096106597221
347 4.203469694283152
348 4.187788482751241
349 4.1721657573210971
350 4.1566013000572646
351 4.1410948938291678
352 4.125646322308512
353 4.1102553699666959
354 4.0949218220852108
355 4.0796454647002527
356 4.0644260846803304
357 4.0492634696693717
358 4.0341574080978315
359 4.019107689180033
360 4.0041141029115073
361 3.9891764400663225
362 3.9742944921944088
363 3.9594680516188876
364 3.9446969114333896
365 3.9299808654993762
366 3.9153197084434606
367 3.9007132356547225
368 3.8861612432820283
369 3.8716635282313541
370 3.8572198881631032
371 3.8428301214894329
372 3.8284940273715762
373 3.8142114057171712
374 3.799982057177596
375 3.785805783145296
376 3.7716823857511366
377 3.757611667861728
378 3.7435934330767919
379 3.7296274857264979
380 3.7157136308688323
381 3.7018516742869596
382 3.6880414224865867
383 3.6742826826933443
384 3.66057526285016
385 3.6469189716146557
386 3.6333136183565302
387 3.6197590131549693
388 3.6062549667960462
389 3.5928012907701361
390 3.579397797269344
391 3.5660442991849202
392 3.552740610104709
393 3.5394865443105847
394 3.5262819167759023
395 3.5131265431629561
396 3.5000202398204432
397 3.486962823780944
398 3.4739541127583933
399 3.4609939251455768
400 3.4480820800116234
401 3.435218397099514
402 3.4224026968235908
403 3.4096348002670815
404 3.3969145291796248
405 3.38424170597481
406 3.3716161537277225
407 3.3590376961724941
408 3.3465061576998738
409 3.3340213633547826
410 3.3215831388339061
411 3.3091913104827269
412 3.2968457052953388
413 3.2845461509086755
414 3.2722924756024034
415 3.2600845082959675
416 3.2479220785462095
417 3.2358050165450138
418 3.2237331531169438
419 3.2117063197169022
420 3.1997243484278006
421 3.187787071958176
422 3.1758943236399517
423 3.1640459374260663
424 3.1522417478881835
425 3.1404815902143914
426 3.1287653002069211
427 3.1170927142798495
428 3.1054636694568503
429 3.0938780033689044
430 3.082335554252059
431 3.0708361609451793
432 3.0593796628876961
433 3.0479659001173887
434 3.0365947132681481
435 3.0252659435677707
436 3.0139794328359018
437 3.0027350234812009
438 2.9915325585001176
439 2.9803718814740532
440 2.9692528365673549
441 2.9581752685251401
442 2.9471390226711422
443 2.9361439449055569
444 2.9251898817028996
445 2.9142766801098632
446 2.9034041877431971
447 2.8925722527869331
448 2.8817807239929172
449 2.8710294506746714
450 2.8603182827080316
451 2.8496470705283592
452 2.8390156651284628
453 2.8284239180565245
454 2.8178716814140299
455 2.8073588078555991
456 2.7968851505792678
457 2.7864505633361225
458 2.7760549004203576
459 2.7656980166692517
460 2.7553797674611467
461 2.7451000087134378
462 2.734858596880565
463 2.72465538895201
464 2.7144902424503128
465 2.7043630154290832
466 2.6942735664710202
467 2.6842217546859519
468 2.6742074397088631
469 2.664230481697949
470 2.6542907413326593
471 2.6443880798117645
472 2.6345223588514193
473 2.6246934406832381
474 2.6149011880523738
475 2.6051454642156049
476 2.5954261329394397
477 2.5857430584982031
478 2.5760961056721601
479 2.5664851397456254
480 2.5569100265050837
481 2.5473706322373286
482 2.537866823727593
483 2.5283984682576963
484 2.5189654336041913
485 2.5095675880365285
486 2.5002048003152146
487 2.4908769396899886
488 2.4815838758980115
489 2.4723254791619889
490 2.4631016201884646
491 2.4539121701659448
492 2.4447570007631292
493 2.4356359841271127
494 2.4265489928816142
495 2.4174959001251937
496 2.4084765794294869
497 2.3994909048374438
498 2.3905387508615745
499 2.3816199924821979
500 2.3727345051456994
501 2.3638821647627757
502 2.3550628477067934
503 2.346276430811931
504 2.3375227913715504
505 2.3288018071364691
506 2.320113356313255
507 2.3114573175625264
508 2.3028335699973104
509 2.2942419931811613
510 2.2856824671267844
511 2.2771548722941564
512 2.268659089588914
513 2.2601950003606928
514 2.2517624864014723
515 2.2433614299439326
516 2.234991713659805
517 2.226653220658247
518 2.2183458344842029
519 2.2100694391167881
520 2.2018239189676678
521 2.1936091588794451
522 2.1854250441240599
523 2.1772714604011854
524 2.1691482938366402
525 2.1610554309807912
526 2.1529927588069842
527 2.144960164709957
528 2.1369575365042799
529 2.128984762422784
530 2.1210417311150049
531 2.1131283316456342
532 2.105244453492968
533 2.0973899865473693
534 2.0895648211097293
535 2.0817688478899465
536 2.0740019580053906
537 2.0662640429793937
538 2.0585549947397364
539 2.0508747056171375
540 2.043223068343758
541 2.035599976051699
542 2.02800532227152
543 2.0204390009307467
544 2.0129009063523973
545 2.0053909332535058
546 1.9979089767436544
547 1.9904549323235152
548 1.9830286958833871
549 1.9756301637017486
550 1.9682592324438082
551 1.9609157991600674
552 1.9535997612848814
553 1.9463110166350317
554 1.9390494634082998
555 1.9318150001820471
556 1.9246075259118032
557 1.9174269399298542
558 1.9102731419438412
559 1.9031460320353595
560 1.8960455106585674
561 1.8889714786387946
562 1.8819238371711648
563 1.8749024878192142
564 1.8679073325135163
565 1.8609382735503213
566 1.8539952135901867
567 1.8470780556566238
568 1.840186703134745
569 1.8333210597699139
570 1.8264810296664069
571 1.8196665172860702
572 1.8128774274469952
573 1.8061136653221828
574 1.7993751364382282
575 1.7926617466739967
576 1.7859734022593168
577 1.7793100097736696
578 1.7726714761448845
579 1.7660577086478451
580 1.7594686149031911
581 1.7529041028760348
582 1.7463640808746739
583 1.7398484575493152
584 1.7333571418907965
585 1.7268900432293239
586 1.7204470712331987
587 1.7140281359075655
588 1.7076331475931514
589 1.7012620169650186
590 1.6949146550313172
591 1.6885909731320428
592 1.6822908829378032
593 1.6760142964485827
594 1.6697611259925169
595 1.6635312842246688
596 1.6573246841258107
597 1.6511412390012101
598 1.6449808624794218
599 1.6388434685110815
