# Height(km) Ar+EscapeFlux(cm^-2s^-1)
105 5.1494447025463437
106 5.1256788347957674
107 5.0962400885704717
108 5.0609947835004974
109 5.020060550838096
110 4.9737865537441035
111 4.9227115835216653
112 4.867506882107679
113 4.8089102087361537
114 4.7476566959759285
115 4.6844115998895459
116 4.6197105188306695
117 4.5539133974055677
118 4.4871784786626732
119 4.4194604566892792
120 4.3505334545366887
121 4.2800350552881161
122 4.2075237892376025
123 4.1325403148476125
124 4.0546624401244697
125 3.97354584837572
126 3.8889452979509347
127 3.8007145772127173
128 3.7087872332320209
129 3.6131437229349559
130 3.5137736089515377
131 3.4106429284621136
132 3.3036761495097
133 3.1927589905556406
134 3.0777634492262487
135 2.9585909964659503
136 2.8352255648704703
137 2.7077858250109945
138 2.5765666734978345
139 2.4420624462029568
140 2.3049681996250335
141 2.16615941420367
142 2.0266537913585165
143 1.8875609299318823
144 1.7500264534544048
145 1.6151767955735394
146 1.4840696863130685
147 1.357653809855073
148 1.2367394703212926
149 1.1219806535253765
150 1.0138677495704809
151 0.91272944916926768
152 0.81874192377621013
153 0.73194328481717119
154 0.65225141366927175
155 0.57948348589948406
156 0.51337581574067104
157 0.45360296989530363
158 0.39979540873909503
159 0.35155518645239708
160 0.30846946878165321
161 0.2701218050557247
162 0.23610122199927996
163 0.2060092961616998
164 0.17946541629334836
165 0.15611047400275566
166 0.13560922739337627
167 0.11765157417099889
168 0.10195295298537391
169 0.088254068528240026
170 0.076320110182102704
171 0.065939607973850428
172 0.056923044703050527
173 0.049101320297877428
174 0.042324144191880138
175 0.036458413996759198
176 0.031386623944429405
177 0.027005334324858601
178 0.023223723214397234
179 0.019962233894445441
180 0.017151325214858106
181 0.014730327482463975
182 0.012646402995552234
183 0.010853607870487933
184 0.009312050116787228
185 0.0079871378416696975
186 0.0068489108618873052
187 0.0058714487524459324
188 0.0050323483739638302
189 0.0043122641173685226
190 0.0036945044271779522
191 0.003164678566989803
192 0.0027103880382907154
193 0.0023209575304667224
194 0.0019872007471972574
195 0.0017012169090555446
196 0.0014562141652296691
197 0.0012463565532172989
198 0.0010666315209920637
199 0.00091273537018225542
200 0.00078097429117718678
201 0.00066817894273933653
202 0.00057163078110732362
203 0.00048899856856730905
204 0.00041828369119335156
205 0.00035777309201952571
206 0.00030599878148121793
207 0.00026170302363536147
208 0.00022380841641983013
209 0.00019139218889512627
210 0.00016366412972888404
211 0.00013994764069708162
212 0.00011966347809885082
213 0.00010231580497848191
214 8.7480229057242692e-05
215 7.4793546307094398e-05
216 6.3944949042475245e-05
217 5.4668491054594162e-05
218 4.6736631359179477e-05
219 3.9954703182204262e-05
220 3.4156176425274871e-05
221 2.9198600329958346e-05
222 2.4960129303714744e-05
223 2.1336548494863444e-05
224 1.8238727435429063e-05
225 1.5590440490342113e-05
226 1.332650145288701e-05
227 1.1391167167245929e-05
228 9.7367715061651971e-06
229 8.3225565645916933e-06
230 7.1136726767934807e-06
231 6.080322935570214e-06
232 5.1970313829254683e-06
233 4.4420170340416102e-06
234 3.7966584610926679e-06
235 3.2450358610805865e-06
236 2.7735394146987567e-06
237 2.3705343559681771e-06
238 2.0260745536249298e-06
239 1.7316575880025436e-06
240 1.4800153198313631e-06
241 1.2649348143178735e-06
242 1.0811052259562491e-06
243 9.2398688467317375e-07
244 7.8969936747106061e-07
245 6.7492580487632186e-07
246 5.7683106949796842e-07
247 4.9299183452187479e-07
248 4.2133678128656015e-07
249 3.6009548429834478e-07
250 3.0775471521975761e-07
251 2.6302108970490676e-07
252 2.2478913691074415e-07
253 1.9211400489462514e-07
254 1.6418812917814689e-07
255 1.4032128930650212e-07
256 1.1992356165062028e-07
257 1.0249074803036509e-07
258 8.7591920730158053e-08
259 7.4858776630029251e-08
260 6.3976537765484022e-08
261 5.4676173753815448e-08
262 4.6727754119352886e-08
263 3.9934766416830186e-08
264 3.4129259875865393e-08
265 2.9167694656530064e-08
266 2.4927394217364733e-08
267 2.1303513181576835e-08
268 1.8206445811052047e-08
269 1.5559611074629615e-08
270 1.3297559594811996e-08
271 1.1364355704833267e-08
272 9.7121946417048421e-09
273 8.3002207079917947e-09
274 7.0935171988460397e-09
275 6.0622431336721459e-09
276 5.1808954583823761e-09
277 4.4276784839939866e-09
278 3.7839649768323525e-09
279 3.2338355801861994e-09
280 2.7636851829781695e-09
281 2.3618865051875322e-09
282 2.0185025839137157e-09
283 1.72504105263379e-09
284 1.4742441389390202e-09
285 1.259909189041168e-09
286 1.0767352817598197e-09
287 9.2019213982656538e-10
288 7.8640809739300691e-10
289 6.7207435360975992e-10
290 5.7436314498700388e-10
291 4.9085781322105947e-10
292 4.1949303929403378e-10
293 3.5850376600368288e-10
294 3.0638154589827429e-10
295 2.618372351858456e-10
296 2.2376911109518947e-10
297 1.9123562426951001e-10
298 1.6343211238197066e-10
299 1.3967089911154182e-10
300 1.1936428633161109e-10
301 1.0201001890637729e-10
302 8.7178862634165363e-11
303 7.4503988132526913e-11
304 6.3671898119504627e-11
305 5.4414673712909319e-11
306 4.6503347988561767e-11
307 3.9742242915705428e-11
308 3.3964129612494503e-11
309 2.9026092225698241e-11
310 2.4805993140011547e-11
311 2.1199452093908302e-11
312 1.811726448855971e-11
313 1.5483195038248386e-11
314 1.3232092193542327e-11
315 1.1308276701804073e-11
316 9.6641644495848252e-12
317 8.2590895257578875e-12
318 7.0582983961724198e-12
319 6.0320903126192862e-12
320 5.1550826956558258e-12
321 4.4055833217799836e-12
322 3.765053787018552e-12
323 3.2176509765284851e-12
324 2.7498351991365551e-12
325 2.3500352945752987e-12
326 2.0083624302921452e-12
327 1.7163655089628066e-12
328 1.4668221370137477e-12
329 1.2535599840055906e-12
330 1.0713041144026215e-12
331 9.1554651564424849e-13
332 7.8243459542998338e-13
333 6.6867589030924459e-13
334 5.7145662863319853e-13
335 4.8837213359785108e-13
336 4.173673449593423e-13
337 3.5668598827606694e-13
338 3.0482713442038122e-13
339 2.6050807489355918e-13
340 2.2263259469305639e-13
341 1.9026385798465645e-13
342 1.6260123592575331e-13
343 1.3896050349179981e-13
344 1.1875691548749488e-13
345 1.0149074315519351e-13
346 8.6734913567684394e-14
347 7.4124446167140187e-14
348 6.3347425161127799e-14
349 5.4137284393039483e-14
350 4.6266213935298381e-14
351 3.9539525300328679e-14
352 3.3790835895700839e-14
353 2.8877953613376426e-14
354 2.467935976038493e-14
355 2.1091203337903964e-14
356 1.8024732323634937e-14
357 1.5404098421410654e-14
358 1.3164480979489178e-14
359 1.1250483673464959e-14
360 9.6147642964267852e-15
361 8.2168637647883416e-15
362 7.0222053757239805e-15
363 6.0012395632381192e-15
364 5.1287129987406245e-15
365 4.3830439576083358e-15
366 3.7457885016565763e-15
367 3.2011842737385796e-15
368 2.7357606203953712e-15
369 2.3380053990764103e-15
370 1.9980802285223534e-15
371 1.7075771391243965e-15
372 1.4593106040876283e-15
373 1.2471398073570671e-15
374 1.0658167521605977e-15
375 9.1085645318150859e-16
376 7.784260016043247e-16
377 6.6524975909173174e-16
378 5.685283356941261e-16
379 4.8586934763437216e-16
380 4.1522824228177254e-16
381 3.5485772663799027e-16
382 3.0326454846284639e-16
383 2.591725610332055e-16
384 2.214911579519318e-16
385 1.8928829725048574e-16
386 1.6176744754356278e-16
387 1.3824788600500629e-16
388 1.1814786084056544e-16
389 1.0097020178559702e-16
390 8.6290022707032355e-17
391 7.3744212136552328e-17
392 6.3022451785916207e-17
393 5.3859540889620276e-17
394 4.6028836519358299e-17
395 3.9336647618030677e-17
396 3.3617444091057729e-17
397 2.8729762452989708e-17
398 2.4552706756527016e-17
399 2.0982958255229276e-17
400 1.7932219834594351e-17
401 1.532503200008069e-17
402 1.3096906401018625e-17
403 1.1192730723531896e-17
404 9.5654054978403218e-18
405 8.1746791016633132e-18
406 6.986152143779717e-18
407 5.9704266013794897e-18
408 5.102378665295571e-18
409 4.3605373070918281e-18
410 3.726553196989819e-18
411 3.1847448364258253e-18
412 2.7217106789171475e-18
413 2.3259976451234438e-18
414 1.9878178328876897e-18
415 1.6988064151342095e-18
416 1.4518147372744261e-18
417 1.2407334964237714e-18
418 1.0603416288007237e-18
419 9.0617716756578643e-19
420 7.7442687679272557e-19
421 6.6183193168839298e-19
422 5.6560731207833805e-19
423 4.833729153704258e-19
424 4.1309468508777832e-19
425 3.5303429879557895e-19
426 3.0170617096133358e-19
427 2.5784070722169106e-19
428 2.2035290115636878e-19
429 1.8831549681566289e-19
430 1.6093605318113498e-19
431 1.3753734325270015e-19
432 1.1754060293673976e-19
433 1.0045121539882552e-19
434 8.5846476787407459e-20
435 7.3365140713447938e-20
436 6.2698482870536104e-20
437 5.3582664782304556e-20
438 4.5792207793849657e-20
439 3.9134415887803212e-20
440 3.3444609374258311e-20
441 2.858205156058709e-20
442 2.4426467647935409e-20
443 2.0875069749815393e-20
444 1.7840014447064273e-20
445 1.5246229992161981e-20
446 1.3029559419118269e-20
447 1.1135173629017047e-20
448 9.5162151991130458e-21
449 8.1326393702885668e-21
450 6.9502235448558719e-21
451 5.9397207947694525e-21
452 5.0761364423890244e-21
453 4.3381098201162102e-21
454 3.7073859168120815e-21
455 3.1683638422398006e-21
456 2.7077109408596327e-21
457 2.3140330101313058e-21
458 1.9775924662159412e-21
459 1.6900674859422451e-21
460 1.4443461674440106e-21
461 1.2343506180581091e-21
462 1.0548866183190665e-21
463 9.0151514350762993e-22
464 7.7044256485453481e-22
465 6.5842681453956548e-22
466 5.6269719348838951e-22
467 4.8088583842258101e-22
468 4.1096915300838216e-22
469 3.5121775441051357e-22
470 3.0015369718482958e-22
471 2.5651391644771325e-22
472 2.1921898609316063e-22
473 1.8734641929557209e-22
474 1.6010785088916753e-22
475 1.3682953723270491e-22
476 1.1693569122579278e-22
477 9.9934240270234533e-23
478 8.5404654901112884e-23
479 7.2987547030100997e-23
480 6.237578051464858e-23
481 5.3306874173902756e-23
482 4.5556509340750141e-23
483 3.8932981359948649e-23
484 3.3272457790719387e-23
485 2.8434926025919353e-23
486 2.4300730092560033e-23
487 2.0767610971776102e-23
488 1.7748177230849553e-23
489 1.5167743403618026e-23
490 1.2962482651815608e-23
491 1.1077848013600301e-23
492 9.4672231890005491e-24
493 8.0907694895846489e-24
494 6.9144404317607156e-24
495 5.9091395997630077e-24
496 5.0500009481422529e-24
497 4.3157737421072951e-24
498 3.6882969222722667e-24
499 3.1520498922679805e-24
500 2.6937686179885696e-24
501 2.3021175427215806e-24
502 1.967409203010581e-24
503 1.6813646099725666e-24
504 1.436908469122281e-24
505 1.2279941734830185e-24
506 1.0494542412029521e-24
507 8.9687249826375919e-25
508 7.6647484473123865e-25
509 6.5503590265991266e-25
510 5.5979923659501588e-25
511 4.7840917333227136e-25
512 4.0885253450256186e-25
513 3.4940884074149726e-25
514 2.9860775574782431e-25
515 2.5519271761271713e-25
516 2.1808985784360417e-25
517 1.8638143929690454e-25
518 1.5928315600891327e-25
519 1.3612473343779363e-25
520 1.1633334926508067e-25
521 9.9419464671403879e-26
522 8.4964715624040072e-26
523 7.2611564668144552e-26
524 6.2054457259437376e-26
525 5.3032263890841294e-26
526 4.532182106959001e-26
527 3.8732411381310694e-26
528 3.3101046105834747e-26
529 2.8288433700550675e-26
530 2.4175534431998742e-26
531 2.0660615934742774e-26
532 1.7656736866956684e-26
533 1.5089596421106399e-26
534 1.2895696497508607e-26
535 1.1020771082243753e-26
536 9.4184439801823625e-27
537 8.0490817022327623e-27
538 6.8788131330453808e-27
539 5.8786917307125495e-27
540 5.0239795355229471e-27
541 4.2935352777686883e-27
542 3.6692914494871909e-27
543 3.1358074055370452e-27
544 2.6798874399882503e-27
545 2.290254390967689e-27
546 1.9572707005936239e-27
547 1.6727000304320006e-27
548 1.4295035360457043e-27
549 1.2216657614986236e-27
550 1.0440458473242851e-27
551 8.9225037159591833e-28
552 7.6252467882839566e-28
553 6.5166000873796442e-28
554 5.5691412769434865e-28
555 4.759434996881316e-28
556 4.0674531906565338e-28
557 3.476079712139302e-28
558 2.9706869584304474e-28
559 2.5387740566929111e-28
560 2.1696576555591705e-28
561 1.8542076728544239e-28
562 1.5846214633676233e-28
563 1.3542308207204e-28
564 1.157337039533776e-28
565 9.8906995816266272e-29
566 8.4526749542633609e-29
567 7.2237270168113049e-29
568 6.1734577779803177e-29
569 5.27588885838274e-29
570 4.508818916221385e-29
571 3.8532744978603719e-29
572 3.2930407300898365e-29
573 2.8142602457765591e-29
574 2.4050904223423354e-29
575 2.0554104548771294e-29
576 1.7565710183518745e-29
577 1.501180326835153e-29
578 1.2829212978965433e-29
579 1.0963952997649192e-29
580 9.3698861633334393e-30
581 8.0075832702726567e-30
582 6.8433477877860243e-30
583 5.8483823775341986e-30
584 4.998076592165386e-30
585 4.2713981365811634e-30
586 3.6503726346897882e-30
587 3.1196390336948087e-30
588 2.6660696488585783e-30
589 2.2784454505600983e-30
590 1.9471785618827825e-30
591 1.6640751027186753e-30
592 1.4221325143452852e-30
593 1.2153663513045936e-30
594 1.0386622562864799e-30
595 8.8764945661968241e-31
596 7.5859265330961525e-31
597 6.4829962850147998e-31
598 5.5404228604183609e-31
599 4.7348917207910093e-31
600 4.0464780660185226e-31
601 3.4581539948706321e-31
602 2.9553673202101348e-31
603 2.5256816209337931e-31
604 2.158468627338831e-31
605 1.8446453310747314e-31
606 1.5764493171013867e-31
607 1.3472467604949681e-31
608 1.1513683389070168e-31
609 9.8396900197523703e-32
610 8.4090812908551048e-32
611 7.1864711119007983e-32
612 6.1416182337037696e-32
613 5.248678231552214e-32
614 4.485564243763608e-32
615 3.8334006534947621e-32
616 3.2760562006371715e-32
617 2.7997449753295499e-32
618 2.3926854236698346e-32
619 2.0448089311393506e-32
620 1.7475107755555583e-32
621 1.4934372893791752e-32
622 1.2763039668390815e-32
623 1.0907400167579104e-32
624 9.321555160951087e-33
625 7.9662787825249799e-33
626 6.8080482793775105e-33
627 5.8182148267054105e-33
628 4.9722948994367593e-33
629 4.2493646724797886e-33
630 3.6315424701080242e-33
631 3.1035464628745971e-33
632 2.6523166716950363e-33
633 2.2666919293746987e-33
634 1.9371338092282286e-33
635 1.6554906921691035e-33
636 1.4147961364715673e-33
637 1.2090965628834073e-33
638 1.0333039928828345e-33
639 8.8307019756190717e-34
640 7.5467914421046854e-34
641 6.4495508026798466e-34
642 5.5118398110075722e-34
643 4.7104641861603983e-34
644 4.0256019021885898e-34
645 3.4403128903929632e-34
646 2.9401200267922964e-34
647 2.5126510405138466e-34
648 2.1473324857137648e-34
649 1.8351282074252445e-34
650 1.5683158322889974e-34
651 1.3402957556658522e-34
652 1.145427900428905e-34
653 9.7889220966499302e-35
654 8.3656942257325016e-35
655 7.14939184553256e-35
656 6.1099297123634248e-35
657 5.2215967263637499e-35
658 4.4624199674431868e-35
659 3.8136211950976643e-35
660 3.2591523686192029e-35
661 2.7852986987943141e-35
662 2.3803394125759922e-35
663 2.0342578397443478e-35
664 1.7384936505502539e-35
665 1.4857311159405448e-35
666 1.2697181529818856e-35
667 1.0851116795721296e-35
668 9.2734545328812383e-36
669 7.9251712536397805e-36
670 6.7729171608001091e-36
671 5.7881912402614053e-36
672 4.9466362883133557e-36
673 4.2274364360911597e-36
674 3.6128022689579605e-36
675 3.0875308052420662e-36
676 2.638629450402455e-36
677 2.2549946251282335e-36
678 1.9271371182374055e-36
679 1.6469473709783126e-36
680 1.4074948870403331e-36
681 1.2028568066798545e-36
682 1.0279714047419916e-36
683 8.7851288885110812e-37
684 7.5078440090289222e-37
685 6.416265752494697e-37
686 5.4833939176386127e-37
687 4.6861539081895346e-37
688 4.0048259825316722e-37
689 3.422557485715468e-37
690 2.9249459988787096e-37
691 2.4996830952764219e-37
692 2.1362498912226789e-37
693 1.8256568613949728e-37
694 1.5602214828309128e-37
695 1.3333782076399749e-37
696 1.139516064103914e-37
697 9.7383986922785398e-38
698 8.3225161983339339e-38
699 7.1124912840145961e-38
700 6.0783939642163448e-38
701 5.1946458253697796e-38
702 4.4393873430576462e-38
703 3.7939371863965944e-38
704 3.2423301350721546e-38
705 2.7709221794002176e-38
706 2.3680530355610988e-38
707 2.0237577283169124e-38
708 1.7295201072078603e-38
709 1.4780621994477264e-38
710 1.2631641891601667e-38
711 1.0795105701401378e-38
712 9.2255866672721744e-39
713 7.8842627065304469e-39
714 6.7379561455892908e-39
715 5.758313069673973e-39
716 4.9211019882813718e-39
717 4.2056144688645765e-39
718 3.5941529134088038e-39
719 3.0715928080453206e-39
720 2.6250086179415408e-39
721 2.2433540739722402e-39
722 1.9171889430579925e-39
723 1.6384455238312885e-39
724 1.4002290918971616e-39
725 1.1966473586988066e-39
726 1.0226647256506689e-39
727 8.7397772851270463e-40
728 7.4690859112043414e-40
729 6.3831425552061063e-40
730 5.4550863837142596e-40
731 4.6619619061801954e-40
732 3.9841511704076079e-40
733 3.4048885121086331e-40
734 2.9098458558551686e-40
735 2.4867783098372048e-40
736 2.1252212882082047e-40
737 1.8162316693333088e-40
738 1.5521665874849345e-40
739 1.3264943863942537e-40
740 1.1336330585911463e-40
741 9.6881217432663362e-41
742 8.2795488488703405e-41
743 7.0757708164955819e-41
744 6.0470121657658076e-41
745 5.1678265249681742e-41
746 4.4164672144613248e-41
747 3.7743493420475791e-41
748 3.2255901052272719e-41
749 2.7566159297018898e-41
750 2.3558267266887146e-41
751 2.0133089644444948e-41
752 1.7205904568161244e-41
753 1.470430803507874e-41
754 1.2566422986005473e-41
755 1.0739368774908441e-41
756 9.1779531648009637e-42
757 7.8435544966119623e-42
758 6.7031663814591692e-42
759 5.7285812867675938e-42
760 4.8956928222168707e-42
761 4.1838994675441485e-42
762 3.5755949933956873e-42
763 3.0557329707746728e-42
764 2.6114545972160722e-42
765 2.2317706339598849e-42
766 1.9072895868310167e-42
767 1.6299854073731188e-42
768 1.392998968318177e-42
769 1.1904684028825779e-42
770 1.0173841113278856e-42
771 8.6946484836988812e-43
772 7.4305182645479812e-43
773 6.3501821554439243e-43
774 5.4269180088493827e-43
775 4.6378888569774555e-43
776 3.9635780387267263e-43
777 3.3873064544954295e-43
778 2.8948200081594514e-43
779 2.473937031580435e-43
780 2.1142469706794973e-43
781 1.8068528800682911e-43
782 1.5441513568349793e-43
783 1.3196444701412244e-43
784 1.1277790347033988e-43
785 9.6380925258309395e-44
786 8.2367932572767552e-44
787 7.0392313567869057e-44
788 6.0157850902285807e-44
789 5.1411394793903661e-44
790 4.3936601351912875e-44
791 3.7548581303751095e-44
792 3.2089326753001596e-44
793 2.7423802848966201e-44
794 2.3436607695243167e-44
795 2.0029117880047349e-44
796 1.711704902287832e-44
797 1.4628370997584003e-44
798 1.250152626479765e-44
799 1.0683907244146248e-44
800 9.1305550639842708e-45
801 7.8030475021867642e-45
802 6.6685486111822297e-45
803 5.6989965196704269e-45
804 4.8704093212745565e-45
805 4.1622918812616069e-45
806 3.5571288886757785e-45
807 3.0399516145131642e-45
808 2.5979676596870412e-45
809 2.2202445345875091e-45
810 1.8974392435655038e-45
811 1.6215671856044198e-45
812 1.3858046549297826e-45
813 1.1843200564029125e-45
814 1.0121296608057005e-45
815 8.6497433211856552e-46
816 7.3921417763662609e-46
817 6.3173851509112188e-46
818 5.3988892980974218e-46
819 4.6139351873205803e-46
820 3.9431069480351003e-46
821 3.3698116174767981e-46
822 2.8798687131115042e-46
823 2.4611594778697197e-46
824 2.1033271222357519e-46
825 1.7975206486687755e-46
826 1.5361759218437823e-46
827 1.3128285694769178e-46
828 1.1219540858304476e-46
829 9.588311828517365e-47
