# Height(km) H+EscapeFlux(cm^-2s^-1)
105 61.702361568235411
106 61.622399672942976
107 61.534201319988142
108 61.437826381568556
109 61.333415201668956
110 61.221178222371464
111 61.101384836321529
112 60.974352075648085
113 60.840433628599783
114 60.700009552894862
115 60.553476939324696
116 60.401241677028445
117 60.2437113866008
118 60.081289519965203
119 59.914370576154369
120 59.743336348058314
121 59.568553094457307
122 59.390369521649184
123 59.209115457158163
124 59.025101102068867
125 58.838616756497991
126 58.649932923008159
127 58.459300704160761
128 58.266952422000244
129 58.073102398446267
130 57.877947845946892
131 57.681669827093515
132 57.484434250121929
133 57.286392874314132
134 57.087684305325574
135 56.88843496547576
136 56.688760028164083
137 56.488764308914547
138 56.288543108225923
139 56.088183003507581
140 55.887762589011494
141 55.687353163910089
142 55.487019369589305
143 55.286819777889754
144 55.086807432487056
145 54.887030345899618
146 54.687531954783218
147 54.48835153624799
148 54.28952458793573
149 54.091083174546149
150 53.893056243411536
151 53.69546991160513
152 53.498347726936949
153 53.301710905049148
154 53.105578544677137
155 52.909967822996869
156 52.714894172834668
157 52.520371443377421
158 52.326412045888148
159 52.133027085806425
160 51.94022648249527
161 51.748019077785798
162 51.55641273436877
163 51.365414424987982
164 51.175030313302841
165 50.985265827207968
166 50.79612572532433
167 50.607614157309364
168 50.419734718573039
169 50.23249049993057
170 50.045884132672697
171 49.859917829488076
172 49.674593421631151
173 49.489912392690918
174 49.305875909282008
175 49.12248484894846
176 48.939739825543128
177 48.757641212319498
178 48.576189162950932
179 48.395383630670871
180 48.215224385709526
181 48.035711031185215
182 47.856843017594009
183 47.678619656026704
184 47.501040130230926
185 47.324103507623846
186 47.147808749351711
187 46.972154719482994
188 46.797140193413625
189 46.622763865555577
190 46.449024356373364
191 46.27592021882662
192 46.103449944271901
193 45.931611967871675
194 45.760404673554049
195 45.589826398562629
196 45.419875437632456
197 45.250550046824607
198 45.081848447048962
199 44.913768827301951
200 44.746309347643887
201 44.579468141937852
202 44.413243320370569
203 44.247632971773513
204 44.082635165761076
205 43.918247954700988
206 43.754469375530924
207 43.591297451434031
208 43.428730193384872
209 43.266765601576317
210 43.105401666737237
211 42.944636371349397
212 42.784467690772104
213 42.624893594281502
214 42.465912046031669
215 42.3075210059433
216 42.149718430525922
217 41.992502273638685
218 41.835870487194448
219 41.679821021811634
220 41.524351827417618
221 41.369460853807716
222 41.215146051162677
223 41.061405370528099
224 40.908236764258554
225 40.755638186428961
226 40.603607593215663
227 40.452142943249548
228 40.30124219794299
229 40.150903321792839
230 40.001124282660861
231 39.851903052033641
232 39.703237605262963
233 39.555125921788431
234 39.407565985343354
235 39.260555784145339
236 39.11409331107231
237 38.968176563825232
238 38.822803545078386
239 38.677972262618169
240 38.533680729470888
241 38.389926964020738
242 38.2467089901183
243 38.104024837180383
244 37.961872540281703
245 37.820250140239096
246 37.679155683688471
247 37.538587223155439
248 37.398542817119633
249 37.25902053007335
250 37.120018432574739
251 36.981534601296325
252 36.843567119068467
253 36.706114074918723
254 36.569173564107132
255 36.432743688157601
256 36.296822554885914
257 36.16140827842424
258 36.026498979242739
259 35.89209278416817
260 35.758187826399826
261 35.624782245522979
262 35.491874187519954
263 35.359461804779023
264 35.227543256101221
265 35.096116706705232
266 34.965180328230637
267 34.834732298739162
268 34.704770802714712
269 34.575294031061745
270 34.446300181102409
271 34.317787456572169
272 34.189754067614672
273 34.062198230774989
274 33.935118168992119
275 33.808512111590652
276 33.682378294271196
277 33.556714959100375
278 33.431520354499447
279 33.306792735232833
280 33.182530362395568
281 33.058731503400274
282 32.93539443196353
283 32.812517428091624
284 32.690098778065909
285 32.568136774427558
286 32.44662971596204
287 32.325575907682989
288 32.204973660815924
289 32.084821292781413
290 31.965117127178058
291 31.845859493765065
292 31.727046728444712
293 31.60867717324442
294 31.490749176298571
295 31.373261091830198
296 31.256211280132465
297 31.139598107549979
298 31.023419946459832
299 30.907675175252567
300 30.792362178313095
301 30.677479346001402
302 30.563025074633149
303 30.448997766460128
304 30.335395829650736
305 30.222217678270273
306 30.109461732261252
307 29.997126417423569
308 29.88521016539471
309 29.773711413629808
310 29.662628605381776
311 29.551960189681317
312 29.441704621316973
313 29.33186036081511
314 29.222425874419937
315 29.113399634073467
316 29.00478011739553
317 28.89656580766373
318 28.78875519379347
319 28.681346770317838
320 28.574339037367832
321 28.467730500652422
322 28.361519671438348
323 28.255705066530442
324 28.15028520825156
325 28.045258624422708
326 27.940623848343403
327 27.836379418771802
328 27.73252387990491
329 27.629055781358904
330 27.525973678149462
331 27.423276130672079
332 27.320961704682542
333 27.21902897127735
334 27.11747650687423
335 27.016302893192719
336 26.91550671723471
337 26.815086571265166
338 26.715041052792785
339 26.615368764550798
340 26.516068314477753
341 26.417138315698416
342 26.318577386504668
343 26.220384150336482
344 26.122557235763011
345 26.025095276463627
346 25.927996911209114
347 25.831260783842858
348 25.734885543262134
349 25.638869843399444
350 25.543212343203884
351 25.447911706622605
352 25.352966602582363
353 25.258375704971034
354 25.164137692619143
355 25.07025124928186
356 24.976715063620691
357 24.883527829185077
358 24.790688244394389
359 24.698195012519875
360 24.606046841666672
361 24.514242444755865
362 24.422780539506622
363 24.331659848418369
364 24.240879098753073
365 24.150437022517544
366 24.060332356445787
367 23.970563841981484
368 23.881130225260467
369 23.792030257093312
370 23.703262692947909
371 23.614826292932225
372 23.52671982177699
373 23.438942048818539
374 23.351491747981697
375 23.264367697762676
376 23.177568681212112
377 23.091093485918098
378 23.004940903989311
379 22.919109732038187
380 22.833598771164187
381 22.748406826937067
382 22.663532709380267
383 22.578975232954306
384 22.494733216540304
385 22.410805483423498
386 22.327190861276858
387 22.243888182144744
388 22.160896282426656
389 22.078214002860971
390 21.995840188508854
391 21.913773688738079
392 21.832013357207071
393 21.750558051848866
394 21.66940663485525
395 21.588557972660823
396 21.508010935927281
397 21.427764399527593
398 21.347817242530368
399 21.268168348184215
400 21.188816603902158
401 21.109760901246133
402 21.031000135911523
403 20.95253320771177
404 20.874359020563052
405 20.796476482468947
406 20.718884505505237
407 20.641582005804739
408 20.564567903542187
409 20.487841122919161
410 20.411400592149086
411 20.335245243442291
412 20.25937401299112
413 20.183785840955068
414 20.108479671446016
415 20.033454452513517
416 19.958709136130093
417 19.884242678176641
418 19.810054038427868
419 19.736142180537747
420 19.662506072025099
421 19.589144684259178
422 19.516056992445311
423 19.443241975610608
424 19.370698616589717
425 19.298425902010663
426 19.22642282228065
427 19.154688371572032
428 19.08322154780825
429 19.012021352649878
430 18.94108679148065
431 18.870416873393619
432 18.800010611177335
433 18.729867021302052
434 18.659985123906008
435 18.590363942781774
436 18.521002505362603
437 18.451899842708876
438 18.383054989494589
439 18.314466983993889
440 18.246134868067625
441 18.17805768714998
442 18.1102344902352
443 18.042664329864277
444 17.975346262111742
445 17.908279346572495
446 17.84146264634871
447 17.774895228036698
448 17.70857616171396
449 17.64250452092611
450 17.576679382674055
451 17.511099827401054
452 17.445764938979906
453 17.380673804700141
454 17.315825515255305
455 17.251219164730252
456 17.186853850588545
457 17.122728673659875
458 17.058842738127389
459 16.99519515151534
460 16.931785024676476
461 16.868611471779758
462 16.805673610298097
463 16.742970560995708
464 16.68050144791609
465 16.618265398369765
466 16.556261542922059
467 16.494489015380996
468 16.432946952785194
469 16.371634495391834
470 16.310550786664649
471 16.249694973261978
472 16.189066205024847
473 16.128663634965125
474 16.068486419253681
475 16.008533717208607
476 15.948804691283513
477 15.889298507055798
478 15.830014333215034
479 15.770951341551353
480 15.712108706943885
481 15.653485607349246
482 15.595081223790064
483 15.536894740343554
484 15.478925344130111
485 15.421172225301991
486 15.363634577031984
487 15.306311595502171
488 15.24920247989269
489 15.192306432370568
490 15.135622658078587
491 15.079150365124177
492 15.022888764568371
493 14.966837070414803
494 14.91099449959872
495 14.855360271976059
496 14.799933610312559
497 14.744713740272909
498 14.689699890409948
499 14.634891292153881
500 14.580287179801571
501 14.525886790505842
502 14.471689364264815
503 14.417694143911325
504 14.363900375102345
505 14.310307306308445
506 14.256914188803313
507 14.203720276653302
508 14.150724826707004
509 14.097927098584908
510 14.045326354669024
511 13.992921860092626
512 13.940712882729965
513 13.888698693186063
514 13.836878564786527
515 13.78525177356741
516 13.733817598265095
517 13.682575320306238
518 13.631524223797731
519 13.580663595516711
520 13.529992724900595
521 13.479510904037175
522 13.429217427654725
523 13.379111593112166
524 13.329192700389244
525 13.279460052076763
526 13.229912953366858
527 13.180550712043281
528 13.131372638471753
529 13.082378045590323
530 13.033566248899778
531 12.984936566454097
532 12.936488318850927
533 12.888220829222096
534 12.840133423224156
535 12.792225429028987
536 12.744496177314405
537 12.696945001254816
538 12.649571236511919
539 12.602374221225421
540 12.555353296003799
541 12.5085078039151
542 12.461837090477751
543 12.415340503651461
544 12.369017393828068
545 12.322867113822511
546 12.276889018863773
547 12.231082466585883
548 12.185446817018954
549 12.139981432580237
550 12.094685678065234
551 12.049558920638821
552 12.00460052982641
553 11.959809877505155
554 11.915186337895173
555 11.870729287550819
556 11.826438105351972
557 11.78231217249537
558 11.738350872485958
559 11.694553591128297
560 11.650919716517979
561 11.607448639033089
562 11.564139751325689
563 11.52099244831334
564 11.478006127170648
565 11.43518018732086
566 11.392514030427474
567 11.350007060385874
568 11.307658683315028
569 11.265468307549177
570 11.223435343629582
571 11.181559204296292
572 11.139839304479946
573 11.098275061293604
574 11.056865894024618
575 11.0156112241265
576 10.97451047521086
577 10.933563073039361
578 10.892768445515696
579 10.852126022677604
580 10.811635236688899
581 10.771295521831554
582 10.731106314497803
583 10.691067053182261
584 10.6511771784741
585 10.611436133049217
586 10.57184336166247
587 10.532398311139913
588 10.493100430371085
589 10.453949170301302
590 10.41494398392399
591 10.376084326273066
592 10.3373696544153
593 10.298799427442763
594 10.260373106465254
595 10.222090154602778
596 10.183950036978063
597 10.145952220709068
598 10.108096174901567
599 10.070381370641716
600 10.032807280988681
601 9.9953733809672745
602 9.9580791475606265
603 9.9209240597028678
604 9.8839075982718825
605 9.8470292460820286
606 9.8102884878769459
607 9.7736848103223295
608 9.7372177019987891
609 9.7008866533946918
610 9.6646911568990514
611 9.6286307067944339
612 9.592704799249919
613 9.5569129323140309
614 9.5212546059077514
615 9.4857293218175407
616 9.4503365836883511
617 9.4150758970167345
618 9.3799467691439027
619 9.3449487092488752
620 9.3100812283416037
621 9.2753438392561627
622 9.2407360566439198
623 9.2062573969667998
624 9.1719073784904772
625 9.1376855212777084
626 9.1035913471815828
627 9.0696243798388743
628 9.0357841446633653
629 9.0020701688392428
630 8.9684819813144809
631 8.9350191127942704
632 8.9016810957344479
633 8.8684674643349997
634 8.8353777545335284
635 8.8024115039987816
636 8.7695682521242038
637 8.7368475400214756
638 8.7042489105141403
639 8.6717719081311948
640 8.639416079100755
641 8.6071809713436931
642 8.5750661344673347
643 8.5430711197591549
644 8.5111954801805325
645 8.4794387703605327
646 8.4478005465895922
647 8.4162803668134316
648 8.384877790626815
649 8.3535923792674271
650 8.3224236956097322
651 8.2913713041588828
652 8.2604347710446238
653 8.2296136640152415
654 8.1989075524315265
655 8.1683160072607546
656 8.1378386010707082
657 8.1074749080236828
658 8.0772245038705659
659 8.0470869659448994
660 8.017061873156976
661 7.9871488059879594
662 7.9573473464840268
663 7.9276570782505331
664 7.8980775864461936
665 7.8686084577772917
666 7.8392492804919005
667 7.8099996443741437
668 7.7808591407384586
669 7.7518273624238887
670 7.722903903788402
671 7.6940883607032173
672 7.6653803305471682
673 7.6367794122010837
674 7.6082852060421668
675 7.579897313938436
676 7.55161533924315
677 7.5234388867892745
678 7.4953675628839616
679 7.4674009753030521
680 7.4395387332855947
681 7.4117804475283924
682 7.3841257301805632
683 7.3565741948381209
684 7.329125456538585
685 7.3017791317555956
686 7.2745348383935697
687 7.2473921957823455
688 7.2203508246718835
689 7.1934103472269593
690 7.1665703870218929
691 7.1398305690352846
692 7.1131905196447827
693 7.0866498666218645
694 7.0602082391266325
695 7.0338652677026401
696 7.0076205842717343
697 6.9814738221289065
698 6.955424615937174
699 6.9294726017224804
700 6.9036174168686069
701 6.877858700112113
702 6.8521960915372908
703 6.8266292325711273
704 6.8011577659783118
705 6.7757813358562373
706 6.7504995876300278
707 6.7253121680475907
708 6.700218725174687
709 6.6752189083900024
710 6.6503123683802601
711 6.6254987571353396
712 6.6007777279434192
713 6.5761489353861249
714 6.5516120353337159
715 6.5271666849402701
716 6.5028125426388979
717 6.478549268136975
718 6.4543765224113834
719 6.4302939677037809
720 6.4063012675158779
721 6.3823980866047467
722 6.3585840909781313
723 6.3348589478897814
724 6.3112223258348106
725 6.2876738945450636
726 6.2642133249844969
727 6.2408402893445993
728 6.2175544610397919
729 6.194355514702881
730 6.1712431261805136
731 6.1482169725286413
732 6.1252767320080146
733 6.1024220840796879
734 6.0796527094005404
735 6.0569682898188235
736 6.0343685083697052
737 6.0118530492708508
738 5.9894215979180112
739 5.967073840880623
740 5.9448094658974382
741 5.9226281618721615
742 5.9005296188690952
743 5.8785135281088214
744 5.8565795819638851
745 5.8347274739544925
746 5.8129568987442415
747 5.7912675521358441
748 5.7696591310668826
749 5.7481313336055821
750 5.7266838589465801
751 5.7053164074067384
752 5.6840286804209459
753 5.6628203805379558
754 5.6416912114162265
755 5.6206408778197856
756 5.5996690856141003
757 5.5787755417619787
758 5.5579599543194638
759 5.5372220324317665
760 5.5165614863291914
761 5.4959780273231065
762 5.4754713678018909
763 5.4550412212269324
764 5.4346873021286157
765 5.4144093261023425
766 5.394207009804548
767 5.3740800709487564
768 5.3540282283016252
769 5.334051201679026
770 5.3141487119421251
771 5.2943204809934858
772 5.2745662317731856
773 5.2548856882549471
774 5.2352785754422735
775 5.2157446193646182
776 5.1962835470735502
777 5.1768950866389485
778 5.1575789671451941
779 5.1383349186873932
780 5.1191626723676045
781 5.1000619602910815
782 5.0810325155625344
783 5.0620740722823978
784 5.0431863655431171
785 5.0243691314254519
786 5.0056221069947746
787 4.9869450302974263
788 4.9683376403570296
789 4.9497996771708532
790 4.9313308817061818
791 4.9129309958967022
792 4.8945997626388795
793 4.8763369257883884
794 4.8581422301565205
795 4.840015421506628
796 4.8219562465505641
797 4.8039644529451504
798 4.7860397892886501
799 4.768182005117259
800 4.7503908509015949
801 4.732666078043235
802 4.7150074388712193
803 4.6974146866386013
804 4.6798875755190039
805 4.6624258606031779
806 4.6450292978955892
807 4.6276976443110032
808 4.6104306576710883
809 4.5932280967010399
810 4.5760897210262073
811 4.5590152911687341
812 4.542004568544213
813 4.5250573154583487
814 4.5081732951036528
815 4.4913522715561101
816 4.4745940097719137
817 4.4578982755841512
818 4.4412648356995552
819 4.4246934576952368
820 4.4081839100154339
821 4.3917359619682861
822 4.3753493837226047
823 4.3590239463046645
824 4.3427594215950114
825 4.3265555823252582
826 4.3104122020749269
827 4.2943290552682845
828 4.2783059171711786
829 4.2623425638878949
830 4.2464387723580721
831 4.2305943203535339
832 4.2148089864752052
833 4.1990825501500204
834 4.1834147916278415
835 4.1678054919783873
836 4.1522544330881761
837 4.1367613976574749
838 4.1213261691972649
839 4.1059485320262246
840 4.090628271267704
841 4.0753651728467348
842 4.0601590234870297
843 4.0450096107080098
844 4.0299167228218344
845 4.0148801489304429
846 3.9998996789226089
847 3.9849751034710037
848 3.9701062140292729
849 3.9552928028291281
850 3.9405346628774351
851 3.9258315879533265
852 3.9111833726053216
853 3.8965898121484583
854 3.8820507026614255
855 3.8675658409837235
856 3.8531350247128184
857 3.8387580522013227
858 3.8244347225541704
859 3.8101648356258115
860 3.795948192017423
861 3.781784593074113
862 3.767673840882154
863 3.7536157382662125
864 3.7396100887865966
865 3.7256566967365123
866 3.7117553671393289
867 3.6979059057458508
868 3.6841081190316136
869 3.6703618141941696
870 3.6566667991504027
871 3.6430228825338387
872 3.6294298736919748
873 3.6158875826836177
874 3.6023958202762278
875 3.5889543979432728
876 3.5755631278615994
877 3.5622218229088083
878 3.5489302966606342
879 3.5356883633883496
880 3.5224958380561637
881 3.5093525363186404
882 3.4962582745181221
883 3.483212869682164
884 3.4702161395209794
885 3.4572679024248876
886 3.4443679774617832
887 3.4315161843746069
888 3.4187123435788234
889 3.4059562761599147
890 3.3932478038708833
891 3.380586749129757
892 3.3679729350171121
893 3.3554061852735981
894 3.3428863242974782
895 3.3304131771421766
896 3.3179865695138306
897 3.3056063277688565
898 3.2932722789115272
899 3.2809842505915521
900 3.2687420711016695
901 3.2565455693752483
902 3.2443945749838972
903 3.2322889181350867
904 3.2202284296697723
905 3.208212941060034
906 3.1962422844067206
907 3.1843162924371078
908 3.1724347985025547
909 3.160597636576179
910 3.1488046412505404
911 3.1370556477353229
912 3.125350491855039
913 3.1136890100467327
914 3.1020710393576927
915 3.0904964174431813
916 3.0789649825641616
917 3.0674765735850378
918 3.0560310299714075
919 3.0446281917878153
920 3.0332678996955207
921 3.0219499949502695
922 3.0106743194000791
923 2.9994407154830247
924 2.9882490262250436
925 2.9770990952377376
926 2.9659907667161893
927 2.9549238854367843
928 2.9438982967550476
929 2.9329138466034737
930 2.9219703814893836
931 2.9110677484927745
932 2.9002057952641858
933 2.8893843700225692
934 2.8786033215531677
935 2.8678624992054074
936 2.8571617528907853
937 2.8465009330807796
938 2.8358798908047547
939 2.8252984776478827
