# Height(km) CO+EscapeFlux(cm^-2s^-1)
105 213893.75794438465
106 191344.1572385274
107 170463.73243918765
108 151273.48335505053
109 133758.19084264708
110 117873.10666307989
111 103550.49644056639
112 90705.733285853639
113 79242.743494100636
114 69058.696128101175
115 60047.901248553935
116 52104.936113693111
117 45127.056026524981
118 39015.969091972329
119 33679.06492948169
120 29030.189372326611
121 24990.053092911323
122 21486.354199779929
123 18453.684939458384
124 15833.282016227475
125 13572.669617010632
126 11625.234565474959
127 9949.7644431975768
128 8509.9721362429227
129 7274.0240976103223
130 6214.0845861383086
131 5305.8841332400507
132 4528.3173637723812
133 3863.0729171139833
134 3294.2964472224999
135 2808.2864071131612
136 2393.2214403760618
137 2038.9176224598332
138 1736.6134450491863
139 1478.780259163982
140 1258.9558397214248
141 1071.5987694388687
142 911.96143470031791
143 775.97955878193557
144 660.17635252685795
145 561.57952740616588
146 477.64958250846115
147 406.21793957230301
148 345.43365489220349
149 293.71758144060539
150 249.72298758602278
151 212.30175985779741
152 180.47542635975222
153 153.41033508321507
154 130.39640816308219
155 110.82896984417117
156 94.193213431104184
157 80.050931652531375
158 68.029186532137288
159 57.810639838068639
160 49.125304240122652
161 41.743509141161645
162 35.469904403699388
163 30.138350439428574
164 25.607564882810994
165 21.757414786513941
166 18.485759360001001
167 15.705762077834986
168 13.343602822010993
169 11.336530864162405
170 9.6312081748070533
171 8.1822999727808217
172 6.9512757760298447
173 5.9053896382970361
174 5.0168128871845585
175 4.2618966315023536
176 3.6205446776897729
177 3.0756803705819236
178 2.6127933251010544
179 2.2195541044953395
180 1.8854866805491581
181 1.601690027132135
182 1.360601489351519
183 1.1557956695971487
184 0.98181350725693572
185 0.83401702502719921
186 0.70846589219238454
187 0.60181253161458803
188 0.51121298747253086
189 0.43425118782359051
190 0.36887459073988571
191 0.31333950438350122
192 0.26616462785192624
193 0.22609157768235066
194 0.19205135029043047
195 0.16313582821925343
196 0.13857357204371654
197 0.11770925365084069
198 0.099986183406369569
199 0.08493146598171622
200 0.072143389529797819
201 0.061280712314895631
202 0.052053561394742452
203 0.044215700861249201
204 0.037557963607811704
205 0.031902671573643904
206 0.027098895741655873
207 0.023018429535301532
208 0.01955236826592913
209 0.016608203430673339
210 0.014107354381203339
211 0.011983071540602444
212 0.010178655249425218
213 0.0086459427361003788
214 0.0073440228552837531
215 0.0062381443108196757
216 0.0052987882393556208
217 0.0045008804137808296
218 0.0038231220492774007
219 0.0032474213580848971
220 0.002758410686372695
221 0.0023430363495005051
222 0.001990210221270312
223 0.0016905137802248841
224 0.0014359467155468518
225 0.0012197133839681748
226 0.0010360414190120491
227 0.00088002765178770239
228 0.00074750723131966504
229 0.00063494245145354132
230 0.00053932831725080586
231 0.00045811233049200718
232 0.00038912635336685282
233 0.00033052873176327987
234 0.00028075513337474391
235 0.00023847678843050963
236 0.00020256501842289917
237 0.0001720611060296532
238 0.00014615070198667319
239 0.00012414208576023628
240 0.00010544769972962473
241 8.9568463965786601e-05
242 7.608045291080992e-05
243 6.4623578307274648e-05
244 5.4891976278414495e-05
245 4.662584194864498e-05
246 3.9604493633414258e-05
247 3.3640481448743194e-05
248 2.8574583070235453e-05
249 2.4271553052847783e-05
250 2.0616512238389835e-05
251 1.7511880864472376e-05
252 1.487477350251444e-05
253 1.2634786280848549e-05
254 1.0732117321003605e-05
255 9.1159702104191777e-06
256 7.7431978905883292e-06
257 6.5771507576272536e-06
258 5.586698223843158e-06
259 4.7453976195412823e-06
260 4.0307882476867979e-06
261 3.4237917451161534e-06
262 2.908202741962207e-06
263 2.4702562215770977e-06
264 2.0982600308564701e-06
265 1.7822827301497712e-06
266 1.5138884493138127e-06
267 1.2859116713696906e-06
268 1.0922659311563293e-06
269 9.2778132179330463e-07
270 7.8806647084174645e-07
271 6.6939130131626759e-07
272 5.6858744759245448e-07
273 4.8296366758691367e-07
274 4.1023399294293615e-07
275 3.4845669902254624e-07
276 2.9598246536361417e-07
277 2.5141034262028034e-07
278 2.1355035041644939e-07
279 1.8139170756942127e-07
280 1.540758465098825e-07
281 1.3087349144985665e-07
282 1.1116518834166687e-07
283 9.4424766824880374e-08
284 8.0205292634818434e-08
285 6.8127135435262252e-08
286 5.7867833514555041e-08
287 4.9153484756122693e-08
288 4.1751434042243684e-08
289 3.5464061861540347e-08
290 3.012350829017001e-08
291 2.5587191488955001e-08
292 2.1734001070407825e-08
293 1.8461064707048917e-08
294 1.5681001656640647e-08
295 1.3319589879532878e-08
296 1.1313784465269271e-08
297 9.6100344647756427e-09
298 8.1628531912044971e-09
299 6.9336038195645483e-09
300 5.8894678632591866e-09
301 5.0025689880647029e-09
302 4.2492287712545951e-09
303 3.6093345362199512e-09
304 3.0658023851087466e-09
305 2.6041210935884518e-09
306 2.2119646906808572e-09
307 1.8788633803624739e-09
308 1.5959240192244596e-09
309 1.3555926875274999e-09
310 1.1514530147916637e-09
311 9.7805487563188105e-10
312 8.3076888237145319e-10
313 7.0566278968592329e-10
314 5.9939651153510286e-10
315 5.0913294755039963e-10
316 4.3246223812423517e-10
317 3.6733742596690047e-10
318 3.1201980642532813e-10
319 2.6503250752823169e-10
320 2.2512106043903111e-10
321 1.9121990762721106e-10
322 1.6242395459392376e-10
323 1.3796440564043589e-10
324 1.171882385428321e-10
325 9.9540770148133706e-11
326 8.4550847428201365e-11
327 7.1818268622131973e-11
328 6.1003098636863105e-11
329 5.1816593448490898e-11
330 4.4013491203905835e-11
331 3.7385464210505309e-11
332 3.1755556995123993e-11
333 2.6973461939397617e-11
334 2.2911506360391353e-11
335 1.9461243899492648e-11
336 1.6530559216393789e-11
337 1.4041208689213787e-11
338 1.1926731462305951e-11
339 1.0130675070845525e-11
340 8.6050882698677246e-12
341 7.3092408292562067e-12
342 6.2085361157236859e-12
343 5.2735874298584418e-12
344 4.4794334382470039e-12
345 3.8048717542479872e-12
346 3.2318928753281802e-12
347 2.745199364194602e-12
348 2.3317974367983416e-12
349 1.9806500534070169e-12
350 1.6823822509541062e-12
351 1.4290308496131037e-12
352 1.2138318512493789e-12
353 1.0310398537019512e-12
354 8.7577465960740895e-13
355 7.4389098452021487e-13
356 6.3186778578807687e-13
357 5.3671425747808379e-13
358 4.55889981601206e-13
359 3.8723710382667011e-13
360 3.2892272290921359e-13
361 2.7938995573831711e-13
362 2.3731637154076937e-13
363 2.0157868551001969e-13
364 1.7122276925033899e-13
365 1.4543817737246019e-13
366 1.2353651014987982e-13
367 1.0493303456040065e-13
368 8.9131073030082293e-14
369 7.5708743089078974e-14
370 6.4307693913651883e-14
371 5.4623539041654846e-14
372 4.6397729833354063e-14
373 3.9410652714569016e-14
374 3.3475765911754231e-14
375 2.8434619141077442e-14
376 2.4152623286723971e-14
377 2.0515457126929848e-14
378 1.7426015174196662e-14
379 1.4801815142852911e-14
380 1.2572795828294953e-14
381 1.0679446605485179e-14
382 9.0712186078837522e-15
383 7.7051751683193259e-15
384 6.5448454911402652e-15
385 5.5592509508746854e-15
386 4.7220780214258732e-15
387 4.0109757545849664e-15
388 3.4069590518720228e-15
389 2.8939017981968435e-15
390 2.4581063249702362e-15
391 2.0879377081474337e-15
392 1.7735131376547036e-15
393 1.5064380649513827e-15
394 1.2795820843668395e-15
395 1.0868885646682482e-15
396 9.2321294838208368e-16
397 7.8418540176691705e-16
398 6.660941484512839e-16
399 5.6578637196507138e-16
400 4.8058404144903333e-16
401 4.082124132476616e-16
402 3.4673929951272517e-16
403 2.9452348240364672e-16
404 2.5017089664098966e-16
405 2.1249741056972834e-16
406 1.8049721205670312e-16
407 1.5331595518515848e-16
408 1.3022795081358452e-16
409 1.1061679202961652e-16
410 9.3958897234986743e-17
411 7.9809531492776437e-17
412 6.7790932933150241e-17
413 5.7582227214866826e-17
414 4.8910860777582673e-17
415 4.1545324168821572e-17
416 3.528897117206253e-17
417 2.9974768718226582e-17
418 2.5460837413015123e-17
419 2.1626663620512969e-17
420 1.836988197276335e-17
421 1.5603542404326857e-17
422 1.3253788746746548e-17
423 1.1257886905720721e-17
424 9.5625499769897825e-18
425 8.1225155846513933e-18
426 6.8993374594866571e-18
427 5.860358994687786e-18
428 4.9778413748346869e-18
429 4.2282230007855837e-18
430 3.5914904385025729e-18
431 3.0506440973143734e-18
432 2.5912443722181208e-18
433 2.2010261330618867e-18
434 1.8695712681843338e-18
435 1.5880305400338126e-18
436 1.3488873268274244e-18
437 1.1457569425900341e-18
438 9.7321617778980369e-19
439 8.2665850962070728e-19
440 7.0217111631443434e-19
441 5.9643041199116846e-19
442 5.0661331302286274e-19
443 4.3032186688480278e-19
444 3.6551923122497265e-19
445 3.1047529391053622e-19
446 2.6372048220698777e-19
447 2.2400652788023428e-19
448 1.9027314072213608e-19
449 1.6161970074404976e-19
450 1.3728121327206839e-19
451 1.1660788498924229e-19
452 9.9047775642697664e-20
453 8.4132062248133244e-20
454 7.1462522373042036e-20
455 6.0700902325314268e-20
456 5.1559886397394959e-20
457 4.3795426061378326e-20
458 3.7200224318625833e-20
459 3.1598201248005252e-20
460 2.6839792993025146e-20
461 2.2797958679438821e-20
462 1.9364788655331417e-20
463 1.6448623499912123e-20
464 1.3971606883818122e-20
465 1.1867606946777377e-20
466 1.008045069721535e-20
467 8.5624242955019626e-21
468 7.2729991811419421e-21
469 6.1777500338309787e-21
470 5.2474356799132187e-21
471 4.4572184061197496e-21
472 3.7860008376888375e-21
473 3.2158626767228431e-21
474 2.7315822627224901e-21
475 2.3202301818364433e-21
476 1.9708240749331148e-21
477 1.6740354284986475e-21
478 1.4219405202115449e-21
479 1.207808869893766e-21
480 1.0259235478633132e-21
481 8.7142854324788345e-22
482 7.4019911727083083e-22
483 6.2873168017760962e-22
484 5.3405025171651834e-22
485 4.5362700783831169e-22
486 3.8531479235566388e-22
487 3.2728979174614814e-22
488 2.7800284261986812e-22
489 2.3613807184933244e-22
490 2.0057776512794259e-22
491 1.7037252601119804e-22
492 1.4471592874101574e-22
493 1.2292298812942286e-22
494 1.0441187168644329e-22
495 8.8688365739047403e-23
496 7.5332680814605752e-23
497 6.3988244016414089e-23
498 5.4352179167950418e-23
499 4.6167220562895136e-23
500 3.9214844432627594e-23
501 3.3309434753766436e-23
502 2.8293327633332402e-23
503 2.4032601965547076e-23
504 2.0413503978385656e-23
505 1.7339410211715711e-23
506 1.4728247844003448e-23
507 1.2510303494952929e-23
508 1.0626362003049457e-23
509 9.0261254867139071e-24
510 7.6668704808423707e-24
511 6.512307296689192e-24
512 5.531611152050989e-24
513 4.6985992046669119e-24
514 3.991031517103986e-24
515 3.3900172901440129e-24
516 2.8795105121683532e-24
517 2.4458815592833485e-24
518 2.0775533086774639e-24
519 1.7646920500887158e-24
520 1.4989449432720777e-24
521 1.2732170120512445e-24
522 1.0814817210951021e-24
523 9.1862007815760757e-25
524 7.8028396609870825e-25
525 6.6278005589554635e-25
526 5.6297120132882739e-25
527 4.7819268275862616e-25
528 4.0618106384803521e-25
529 3.4501376183618056e-25
530 2.9305771799474538e-25
531 2.4892579786076737e-25
532 2.1143975720968178e-25
533 1.7959878502612039e-25
534 1.5255278362584789e-25
535 1.2957967255570176e-25
536 1.1006611032608471e-25
537 9.3491119280592716e-26
538 7.9412176415944134e-26
539 6.7453398801851065e-26
540 5.7295508172556881e-26
541 4.866730676248018e-26
542 4.1338436805928233e-26
543 3.5113230392388293e-26
544 2.9825485479458825e-26
545 2.5334028592242441e-26
546 2.1518945741151619e-26
547 1.8278380930322067e-26
548 1.5525816782487526e-26
549 1.3187764677823669e-26
550 1.120180273756334e-26
551 9.5149092700232627e-27
552 8.0820471850040393e-27
553 6.8649615829353656e-27
554 5.8311584165258381e-27
555 4.9530369569913338e-27
556 4.2071529032455617e-27
557 3.5735924603717337e-27
558 3.0354406763776019e-27
559 2.5783298427651317e-27
560 2.1900559020083179e-27
561 1.8602526206964483e-27
562 1.5801148293413876e-27
563 1.3421633398403888e-27
564 1.1400452643057291e-27
565 9.6836440412627324e-28
566 8.2253718094818146e-28
567 6.9867026318602815e-28
568 5.9345662090794066e-28
569 5.0408723394343334e-28
570 4.2817609597598057e-28
571 3.6369651236172719e-28
572 3.0892699093827435e-28
573 2.6240528120340971e-28
574 2.2288933479073863e-28
575 1.8932414495561453e-28
576 1.6081357974397271e-28
577 1.3659645683920695e-28
578 1.1602622132756408e-28
579 9.8553683814107409e-29
580 8.3712358027275855e-29
581 7.1106006451836552e-29
582 6.039806148049843e-29
583 5.130263964750849e-29
584 4.3576909040037826e-29
585 3.7014606110631906e-29
586 3.144052880099093e-29
587 2.6705858953140856e-29
588 2.2684189124573817e-29
589 1.9268147730285258e-29
590 1.6366532408913971e-29
591 1.390187507888125e-29
592 1.1808373675792678e-29
593 1.0030135352111903e-29
594 8.5196842356120179e-30
595 7.2366939063666676e-30
596 6.1469107516334478e-30
597 5.2212394540878027e-30
598 4.4349661975422089e-30
599 3.7670988511008833e-30
600 3.1998065158200024e-30
601 2.7179434707482354e-30
602 2.3086448085383072e-30
603 1.9609829648063934e-30
604 1.6656759711727841e-30
605 1.4148396428491187e-30
606 1.2017770846130798e-30
607 1.0207998953472236e-30
608 8.6707629761488286e-31
609 7.3650213759755762e-31
610 6.2559131131695229e-31
611 5.3138269171269635e-31
612 4.513610716908429e-31
613 3.8339001246021237e-31
614 3.2565480432407744e-31
615 2.7661401707960389e-31
616 2.3495834650501848e-31
617 1.995756582073081e-31
618 1.6952129556197816e-31
619 1.439928590184924e-31
620 1.2230878342269054e-31
621 1.0389014140792534e-31
622 8.8245187037077057e-32
623 7.4956227037538464e-32
624 6.3668469113942406e-32
625 5.4080549607944911e-32
626 4.5936487610021715e-32
627 3.9018850712026146e-32
628 3.3142949937958227e-32
629 2.8151908867666443e-32
630 2.3912475307635209e-32
631 2.031146368772958e-32
632 1.7252733202056838e-32
633 1.4654621015542068e-32
634 1.244776200728065e-32
635 1.0573236841591261e-32
636 8.9809989234734023e-33
637 7.6285382409036319e-33
638 6.4797464208723668e-33
639 5.5039526981214397e-33
640 4.6751050586155376e-33
641 3.9710746956944666e-33
642 3.3730652090883377e-33
643 2.8651107734307361e-33
644 2.4336498782365894e-33
645 2.067163258938733e-33
646 1.7558663523673711e-33
647 1.4914480657649665e-33
648 1.266848884920352e-33
649 1.0760723972923482e-33
650 9.1402519811561894e-34
651 7.7638090525805569e-34
652 6.5946465226101683e-34
653 5.6015497572583019e-34
654 4.758004776089859e-34
655 4.0414903745298655e-34
656 3.4328768464144627e-34
657 2.9159152537127312e-34
658 2.4768036078009618e-34
659 2.1038183800767133e-34
660 1.7870015038807151e-34
661 1.517894511216868e-34
662 1.2893127061785205e-34
663 1.0951533459001304e-34
664 9.3023270779585272e-35
665 7.9014769306063584e-35
666 6.7115827148534753e-35
667 5.7008762906467674e-35
668 4.842373525106131e-35
669 4.1131538624381965e-35
670 3.4937483843838213e-35
671 2.9676200234648115e-35
672 2.5207220516165218e-35
673 2.1411230566111289e-35
674 1.81868839378616e-35
675 1.5448096083862278e-35
676 1.3121746045590364e-35
677 1.1145724249122475e-35
678 9.4672742858035097e-36
679 8.0415844064037718e-36
680 6.8305911240744439e-36
681 5.8019629843518085e-36
682 4.9282373706116268e-36
683 4.1860872991588716e-36
684 3.5556986286383451e-36
685 3.0202410563244579e-36
686 2.5654187777974096e-36
687 2.1790888133886677e-36
688 1.8509368113654742e-36
689 1.5722016723544398e-36
690 1.3354416429476923e-36
691 1.1343356335912207e-36
692 9.6351445628293798e-37
693 8.1841747641575701e-37
694 6.9517085161505353e-37
695 5.9048410675571133e-37
696 5.015622838885277e-37
697 4.2603132162920236e-37
698 3.6187467176712158e-37
699 3.0737946086570482e-37
700 2.6109075946103017e-37
701 2.2177273792444943e-37
702 1.8837567191706968e-37
703 1.6000791653807533e-37
704 1.3591210092449282e-37
705 1.1544490773885109e-37
706 9.8059897691560099e-38
707 8.329292054206545e-38
708 7.0749723077396249e-38
709 6.0095423222269973e-38
710 5.1045569257444883e-38
711 4.3358545442693842e-38
712 3.6829121287479282e-38
713 3.128297224585186e-38
714 2.6572025547462547e-38
715 2.2570506906307307e-38
716 1.9171582561061679e-38
717 1.628450699520151e-38
718 1.3832200185894489e-38
719 1.1749189698332663e-38
720 9.9798626829278708e-39
721 8.476981106670378e-39
722 7.2004205778546109e-39
723 6.1160990929379357e-39
724 5.195067104896019e-39
725 4.4127346194474604e-39
726 3.7482146839312411e-39
727 3.1837657411062969e-39
728 2.7043179596676188e-39
729 2.2970708953087439e-39
730 1.9511517405647555e-39
731 1.6573250392872571e-39
732 1.4077461156209421e-39
733 1.1957516344542639e-39
734 1.0156817016638965e-39
735 8.6272875453160032e-40
736 7.3280920796414964e-40
737 6.2245442968827867e-40
738 5.2871813364335704e-40
739 4.4909771913254543e-40
740 3.8146745562120491e-40
741 3.2402172933001958e-40
742 2.752268364031339e-40
743 2.3378003561062715e-40
744 1.9857476736191611e-40
745 1.6867111043670228e-40
746 1.4327068767825421e-40
747 1.2169535067356326e-40
748 1.0336907433744825e-40
749 8.78025780166789e-41
750 7.4580262523647663e-41
751 6.3349114340512507e-41
752 5.3809280754850722e-41
753 4.5706064298902061e-41
754 3.8823122757481569e-41
755 3.2976693196282741e-41
756 2.8010685801900839e-41
757 2.3792516547407051e-41
758 2.0209567422694184e-41
759 1.7166179723731672e-41
760 1.4581100126638481e-41
761 1.2385311361070065e-41
762 1.0520189565566838e-41
763 8.9359391293665927e-42
764 7.5902632336034068e-42
765 6.4472345975891414e-42
766 5.4763362810118543e-42
767 4.6516469330902507e-42
768 3.9511487362128444e-42
769 3.35613956732602e-42
770 2.8507336827726658e-42
771 2.421437595709694e-42
772 2.0567898227475692e-42
773 1.7470548816551637e-42
774 1.4839633703851817e-42
775 1.2604911879687271e-42
776 1.0706720028494285e-42
777 9.094379618780158e-43
778 7.7248438716619735e-43
779 6.5615484843403674e-43
780 5.5734354247630622e-43
781 4.7341237344417344e-43
782 4.0212052012552609e-43
783 3.4156460978904734e-43
784 2.9012790133450866e-43
785 2.4643712102502498e-43
786 2.0932579838805508e-43
787 1.778031234154692e-43
788 1.5102749360238674e-43
789 1.2828404457527155e-43
790 1.0896556441489609e-43
791 9.2556282118731586e-44
792 7.8618097382003433e-44
793 6.677888405574689e-44
794 5.6722555003877754e-44
795 4.8180623107682361e-44
796 4.0925033110746872e-44
797 3.4762072926644179e-44
798 2.9527201851537887e-44
799 2.5080657603676818e-44
800 2.1303724905123729e-44
801 1.809556598312444e-44
802 1.537052837083281e-44
803 1.3055858130197099e-44
804 1.1089757443902287e-44
805 9.419734717337848e-45
806 8.0012031410861576e-45
807 6.7962902979046322e-45
808 5.7728270327079094e-45
809 4.9034885900772203e-45
810 4.1650650891107807e-45
811 3.5378418585190857e-45
812 3.0050730879525267e-45
813 2.5525347429355533e-45
814 2.1681448069866461e-45
815 1.8416407120261868e-45
816 1.5643053450054351e-45
817 1.328734315593448e-45
818 1.1286382713596621e-45
819 9.5867498259919877e-46
820 8.1430671374738125e-46
821 6.9167907343947759e-46
822 5.875181087154509e-46
823 4.9904289595752446e-46
824 4.2389129488518003e-46
825 3.600568833637124e-46
826 3.0583538929144733e-46
827 2.5977918938680265e-46
828 2.2065866006905599e-46
829 1.8742934856610358e-46
830 1.5920408777279176e-46
831 1.3522931037325426e-46
832 1.1486492985399839e-46
833 9.7567251264487048e-47
