# Height(km) O2+EscapeFlux(cm^-2s^-1)
105 14.636788244934182
106 13.591442891940224
107 12.576708104765013
108 11.599431394999428
109 10.665047015139297
110 9.7776200275526719
111 8.9399374141284458
112 8.1536315568997964
113 7.4193229037357815
114 6.7367707374118391
115 6.1050233047563198
116 5.5225608569001645
117 4.9874272239731257
118 4.4973473026915087
119 4.0498292400637661
120 3.6422511601390446
121 3.2719330381928806
122 2.9361948255540273
123 2.6324022195878678
124 2.3580016060558102
125 2.1105457184713576
126 1.8877114974271036
127 1.6873115211345937
128 1.5073002387677965
129 1.3457760868846678
130 1.2009804175825658
131 1.0712940226081047
132 0.95523190491773891
133 0.85143683052508057
134 0.75867208969320898
135 0.67581380742111696
136 0.60184306786774955
137 0.53583805461807665
138 0.47696635711329582
139 0.42447755169329293
140 0.37769613213468328
141 0.33601483801426241
142 0.29888840851667953
143 0.26582777340738395
144 0.23639468091718999
145 0.21019675347457514
146 0.18688295593771728
147 0.1661394566890006
148 0.14768585922252195
149 0.13127178032252218
150 0.11667375030836007
151 0.10369241087743436
152 0.092149986626627142
153 0.081888007229732038
154 0.072765258379213132
155 0.064655940877665088
156 0.057448018620493063
157 0.051041737596245008
158 0.045348299407562159
159 0.040288674157130035
160 0.035792538830711311
161 0.031797328531010687
162 0.028247389064275704
163 0.025093220452332834
164 0.022290801935077213
165 0.019800989943135415
166 0.01758898135978602
167 0.015623835158496493
168 0.013878046201496118
169 0.012327165619899522
170 0.01094946277144462
171 0.0097256242923668603
172 0.0086384862296759197
173 0.0076727956633656337
174 0.0068149986089078253
175 0.0060530513325655561
176 0.0053762525191729535
177 0.0047750940073790311
178 0.0042411280539983295
179 0.0037668493098634921
180 0.0033455898870067232
181 0.0029714260734560972
182 0.0026390954095530262
183 0.0023439229804160578
184 0.0020817559047451232
185 0.0018489051121625764
186 0.00164209360114986
187 0.0014584104586457271
188 0.0012952700016789058
189 0.0011503754720513773
190 0.0010216867779985251
191 0.00090739183276244929
192 0.00080588108987097876
193 0.00071572491928484513
194 0.00063565350805593849
195 0.00056453900426367554
196 0.00050137965424048127
197 0.00044528571088611751
198 0.00039546691558325919
199 0.00035122137820138788
200 0.0003119256992141305
201 0.00027702619532522413
202 0.00024603110543959045
203 0.00021850366754169514
204 0.00019405596924318219
205 0.00017234348560467912
206 0.00015306022747298782
207 0.00013593443213844275
208 0.00012072473572706693
209 0.00010721677350419646
210 9.5220160274690953e-05
211 8.4565808403461171e-05
212 7.5103545723359977e-05
213 6.669999981171895e-05
214 5.9236718860891041e-05
215 5.2608502694431392e-05
216 4.6721920435570727e-05
217 4.1493993959774991e-05
218 3.6851028595226844e-05
219 3.2727574606683219e-05
220 2.9065504838416456e-05
221 2.5813195526637858e-05
222 2.2924798743875812e-05
223 2.0359596227617746e-05
224 1.8081425491240035e-05
225 1.6058170132925412e-05
226 1.4261307162207495e-05
227 1.2665504966694496e-05
228 1.124826625468275e-05
229 9.9896109428089708e-06
230 8.871794520514525e-06
231 7.8790579228164442e-06
232 6.9974053867289633e-06
233 6.2144071608999826e-06
234 5.5190242881656187e-06
235 4.9014529917111323e-06
236 4.3529864717339026e-06
237 3.8658921648223314e-06
238 3.4333027361467235e-06
239 3.049119268071945e-06
240 2.7079252806717066e-06
241 2.4049103722707795e-06
242 2.135802403714069e-06
243 1.8968072704695033e-06
244 1.6845554136110494e-06
245 1.4960543157053723e-06
246 1.3286463119780379e-06
247 1.1799711220518229e-06
248 1.0479325740852864e-06
249 9.3066905223214855e-07
250 8.265272508236721e-07
251 7.3403886528650322e-07
252 6.5189989120427235e-07
253 5.7895223969577145e-07
254 5.1416740993397265e-07
255 4.5663198862854863e-07
256 4.0553477204857258e-07
257 3.6015532903473657e-07
258 3.1985384376397709e-07
259 2.8406209507021797e-07
260 2.5227544514724776e-07
261 2.2404572468939903e-07
262 1.9897491416322171e-07
263 1.7670953212690372e-07
264 1.5693565148195124e-07
265 1.3937447339412923e-07
266 1.2377839648263812e-07
267 1.0992752585881032e-07
268 9.7626572796646716e-08
269 8.6702101324720523e-08
270 7.700008291995958e-08
271 6.8383724827542921e-08
272 6.0731541388838118e-08
273 5.3935641185344569e-08
274 4.7900205849299721e-08
275 4.2540139093826505e-08
276 3.7779866915369933e-08
277 3.3552272052497913e-08
278 2.9797747677986789e-08
279 2.6463356982156372e-08
280 2.3502086798359782e-08
281 2.0872184747422282e-08
282 1.8536570555347091e-08
283 1.6462313244370963e-08
284 1.4620166826198405e-08
285 1.298415795106555e-08
286 1.1531219698811624e-08
287 1.0240866348695052e-08
288 9.0949045424534144e-09
289 8.0771767682196268e-09
290 7.1733335486023323e-09
291 6.370631120943009e-09
292 5.6577517571824419e-09
293 5.0246441899667816e-09
294 4.4623818951077592e-09
295 3.9630372322732721e-09
296 3.5195696693717158e-09
297 3.125726514664632e-09
298 2.7759547569912821e-09
299 2.4653227711068889e-09
300 2.1894507842266831e-09
301 1.9444491233942191e-09
302 1.7268633729985267e-09
303 1.5336256691923826e-09
304 1.3620114444905298e-09
305 1.2096010126708692e-09
306 1.0742454523469024e-09
307 9.54036308188386e-10
308 8.4727868259371539e-10
309 7.5246733842096032e-10
310 6.6826547583861319e-10
311 5.9348588406072231e-10
312 5.270742022155824e-10
313 4.6809405333478053e-10
314 4.1571384185935902e-10
315 3.6919502851454152e-10
316 3.2788171723458768e-10
317 2.9119140731853557e-10
318 2.5860678042674421e-10
319 2.2966840661884785e-10
320 2.0396826659184061e-10
321 1.8114399878483166e-10
322 1.6087379023737978e-10
323 1.4287183916502331e-10
324 1.2688432527631326e-10
325 1.1268583101476305e-10
326 1.0007616326687123e-10
327 8.8877530723709834e-11
328 7.8932037098199004e-11
329 7.0099454853558954e-11
330 6.2255248053510686e-11
331 5.5288816457298147e-11
332 4.9101936102053715e-11
333 4.3607374385408387e-11
334 3.8727660121621805e-11
335 3.4393991229562654e-11
336 3.0545264651416423e-11
337 2.7127214824395594e-11
338 2.4091648558275206e-11
339 2.1395765530856984e-11
340 1.9001554820638455e-11
341 1.6875258968055387e-11
342 1.4986898008788494e-11
343 1.3309846768205325e-11
344 1.1820459456967382e-11
345 1.0497736274757352e-11
346 9.3230273213789072e-12
347 8.2797696404986228e-12
348 7.3532536884558336e-12
349 6.5304159354471708e-12
350 5.7996546748479067e-12
351 5.1506664436570537e-12
352 4.5743007476613928e-12
353 4.0624310430024497e-12
354 3.6078401550384369e-12
355 3.2041185189553056e-12
356 2.8455738073581954e-12
357 2.5271506706287501e-12
358 2.2443594584218857e-12
359 1.9932129173015882e-12
360 1.7701699719781239e-12
361 1.5720857974844321e-12
362 1.3961674783291562e-12
363 1.2399346294378514e-12
364 1.1011844236531366e-12
365 9.7796053269526235e-13
366 8.6852554366278181e-13
367 7.7133646215673953e-13
368 6.8502295663195926e-13
369 6.0836803722920774e-13
370 5.4029089666724612e-13
371 4.7983167125795915e-13
372 4.2613790718073277e-13
373 3.7845254119573728e-13
374 3.3610322632876972e-13
375 2.9849285202388008e-13
376 2.6509112510153827e-13
377 2.3542709281704485e-13
378 2.0908250259713612e-13
379 1.8568590482957418e-13
380 1.6490741555727471e-13
381 1.4645406523292338e-13
382 1.3006566795326207e-13
383 1.1551115293079028e-13
384 1.0258530647799693e-13
385 9.1105878567313081e-14
386 8.0911013170348271e-14
387 7.1856966145146695e-14
388 6.381607849451196e-14
389 5.6674976419089096e-14
390 5.0332972786611181e-14
391 4.4700647478612411e-14
392 3.9698586598013206e-14
393 3.5256262760863774e-14
394 3.1311040684765733e-14
395 2.7807294053128509e-14
396 2.4695621203366193e-14
397 2.1932148580519606e-14
398 1.9477912135251496e-14
399 1.7298307944147415e-14
400 1.5362604306265324e-14
401 1.3643508436669313e-14
402 1.2116781647480389e-14
403 1.0760897590634043e-14
404 9.5567387436881482e-15
405 8.4873268592386218e-15
406 7.5375835773745051e-15
407 6.6941178258922936e-15
408 5.945037010687089e-15
409 5.2797793341712568e-15
410 4.6889648774687129e-15
411 4.1642633466957817e-15
412 3.6982766185969995e-15
413 3.2844344294701904e-15
414 2.9169017366307425e-15
415 2.590496446243541e-15
416 2.3006163475134502e-15
417 2.0431742230314837e-15
418 1.8145402203547772e-15
419 1.6114906722793554e-15
420 1.431162644188983e-15
421 1.2710135676131961e-15
422 1.1287853908413813e-15
423 1.0024727411287047e-15
424 8.9029464959175903e-16
425 7.906694401244852e-16
426 7.0219242827653242e-16
427 6.2361611565573114e-16
428 5.5383260060238148e-16
429 4.9185795713174084e-16
430 4.3681836189301429e-16
431 3.8793777353957254e-16
432 3.4452699079361902e-16
433 3.0597393492762966e-16
434 2.7173501964877069e-16
435 2.4132748670450751e-16
436 2.1432259914396364e-16
437 1.9033959626224933e-16
438 1.690403249944565e-16
439 1.501244720637218e-16
440 1.3332532965820781e-16
441 1.1840603493442111e-16
442 1.0515623032508419e-16
443 9.338909756298495e-17
444 8.2938723601496275e-17
445 7.3657761292096669e-17
446 6.541535183519537e-17
447 5.8095279711487088e-17
448 5.1594334078955909e-17
449 4.5820853531754955e-17
450 4.0693433702522733e-17
451 3.6139779485739564e-17
452 3.209568569883923e-17
453 2.8504131808719835e-17
454 2.5314477959583852e-17
455 2.248175096635309e-17
456 1.9966010206392561e-17
457 1.7731784468812627e-17
458 1.5747571821101174e-17
459 1.3985395441365079e-17
460 1.242040915355104e-17
461 1.1030547103816396e-17
462 9.796212638595237e-18
463 8.7000019976371233e-18
464 7.7264589261757769e-18
465 6.8618567463349095e-18
466 6.0940048150454586e-18
467 5.4120766395898329e-18
468 4.8064572272556351e-18
469 4.2686075167753105e-18
470 3.7909439800765895e-18
471 3.3667316967650614e-18
472 2.9899893937215777e-18
473 2.6554051109017311e-18
474 2.3582613042505785e-18
475 2.0943683297064615e-18
476 1.8600053704383806e-18
477 1.6518679744087763e-18
478 1.4670214625570681e-18
479 1.3028595506733846e-18
480 1.1570676015431836e-18
481 1.0275899892290356e-18
482 9.1260111533564492e-19
483 8.1047966859605788e-19
484 7.1978576484686234e-19
485 6.3924064507279958e-19
486 5.6770864526920722e-19
487 5.0418118390267787e-19
488 4.4776254119783153e-19
489 3.976572297423297e-19
490 3.5315877833935235e-19
491 3.1363977096314579e-19
492 2.7854300036981798e-19
493 2.4737361163186907e-19
494 2.1969212482257983e-19
495 1.9510823847212938e-19
496 1.732753264259696e-19
497 1.5388555051274601e-19
498 1.3666552011179467e-19
499 1.2137243742136424e-19
500 1.0779067407695237e-19
501 9.5728730851055161e-20
502 8.5016537566968185e-20
503 7.5503055156191174e-20
504 6.7054146049130956e-20
505 5.9550682872216452e-20
506 5.2886868784591592e-20
507 4.6968745771609246e-20
508 4.1712869862486056e-20
509 3.7045134593060675e-20
510 3.2899726124811744e-20
511 2.9218195287606851e-20
512 2.5948633462245927e-20
513 2.304494068297341e-20
514 2.046617564040889e-20
515 1.8175978420118937e-20
516 1.6142057837604447e-20
517 1.4335736141269328e-20
518 1.2731544663808392e-20
519 1.1306864720810965e-20
520 1.0041608693349794e-20
521 8.917936797907307e-21
522 7.9200055501734102e-21
523 7.0337443761231619e-21
524 6.246657220652e-21
525 5.5476463565040919e-21
526 4.9268559092482705e-21
527 4.3755328920460126e-21
528 3.8859037908395794e-21
529 3.4510649598449665e-21
530 3.06488528195574e-21
531 2.7219197215958828e-21
532 2.4173325511400573e-21
533 2.1468291684145963e-21
534 1.9065955439242614e-21
535 1.6932444440269313e-21
536 1.5037676718173797e-21
537 1.3354936523293631e-21
538 1.1860497640186968e-21
539 1.0533288854112525e-21
540 9.3545968523250904e-22
541 8.3078023711736528e-22
542 7.3781458687461213e-22
543 6.5525194191068335e-22
544 5.8192818938905489e-22
545 5.1680948253620537e-22
546 4.5897766366536513e-22
547 4.0761731838651865e-22
548 3.6200427847040053e-22
549 3.2149541125989415e-22
550 2.855195516621734e-22
551 2.5356944886505522e-22
552 2.2519461422835336e-22
553 1.9999496950735452e-22
554 1.7761520585001842e-22
555 1.5773977403121634e-22
556 1.4008843528760764e-22
557 1.244123100210703e-22
558 1.1049036865842115e-22
559 9.8126315189448313e-23
560 8.7145819441940964e-23
561 7.7394059069502409e-23
562 6.8733536594802419e-23
563 6.1042140729134864e-23
564 5.4211424633380214e-23
565 4.8145076844288925e-23
566 4.2757563306535647e-23
567 3.797292136353781e-23
568 3.3723688702615639e-23
569 2.9949952152889601e-23
570 2.6598502924205357e-23
571 2.3622086376167459e-23
572 2.0978735739213211e-23
573 1.8631180393360955e-23
574 1.6546320361510888e-23
575 1.4694759607785185e-23
576 1.3050391560530304e-23
577 1.1590031015959011e-23
578 1.0293087232364593e-23
579 9.1412736056170246e-24
580 8.1183498324372776e-24
581 7.2098929260155911e-24
582 6.4030938553505196e-24
583 5.686576940973316e-24
584 5.0502394605820258e-24
585 4.485109203063768e-24
586 3.9832179624520497e-24
587 3.5374891881147116e-24
588 3.1416382070676443e-24
589 2.7900836115731837e-24
590 2.4778685626098809e-24
591 2.2005908996116976e-24
592 1.9543410710408871e-24
593 1.7356470106306623e-24
594 1.5414251820659839e-24
595 1.3689371018443132e-24
596 1.2157507272990858e-24
597 1.0797061653663633e-24
598 9.5888521859648384e-25
599 8.5158433901678339e-25
600 7.5629060850131414e-25
601 6.716604069765244e-25
602 5.9650046768966945e-25
603 5.2975105242376068e-25
604 4.7047100943358223e-25
605 4.1782450342321294e-25
606 3.7106923046088329e-25
607 3.2954595166425873e-25
608 2.9266919808357648e-25
609 2.5991901572368308e-25
610 2.3083363431172721e-25
611 2.0500295644185243e-25
612 1.8206277529536276e-25
613 1.6168963940756119e-25
614 1.4359629207568463e-25
615 1.2752762110464509e-25
616 1.1325706178293918e-25
617 1.0058340237152251e-25
618 8.9327947063785125e-26
619 7.9331996415021698e-26
620 7.0454609716035442e-26
621 6.2570617760861476e-26
622 5.5568857989093102e-26
623 4.9350607118725093e-26
624 4.3828189169997471e-26
625 3.8923739253696257e-26
626 3.4568105693609763e-26
627 3.0699875003318698e-26
628 2.7264505969715887e-26
629 2.4213560634030625e-26
630 2.1504021327366574e-26
631 1.9097684131108381e-26
632 1.6960620210127749e-26
633 1.5062697423708939e-26
634 1.3377155469016363e-26
635 1.1880228566723372e-26
636 1.0550810368754464e-26
637 9.3701563634163387e-27
638 8.3216195818966284e-27
639 7.3904158796516835e-27
640 6.5634154832036133e-27
641 5.8289578632031016e-27
642 5.1766873235098698e-27
643 4.5974069881332746e-27
644 4.0829491272817304e-27
645 3.6260599941470649e-27
646 3.2202975486481264e-27
647 2.8599406260611482e-27
648 2.5399082698347427e-27
649 2.2556880912000562e-27
650 2.0032726454624561e-27
651 1.7791029278945371e-27
652 1.5800181925349782e-27
653 1.4032113863493816e-27
654 1.2461895703845648e-27
655 1.1067387698632756e-27
656 9.8289275761337517e-28
657 8.729053306846664e-28
658 7.752256892597506e-28
659 6.8847657070690568e-28
660 6.1143483046992762e-28
661 5.4301419598968211e-28
662 4.8224995049143501e-28
663 4.2828533068267201e-28
664 3.8035944657190152e-28
665 3.3779655308050721e-28
666 2.9999652217968312e-28
667 2.6642638121165277e-28
668 2.3661279808731801e-28
669 2.1013540740324521e-28
670 1.8662088337766851e-28
671 1.6573767603519014e-28
672 1.4719133642149775e-28
673 1.3072036493463633e-28
674 1.1609252423518933e-28
675 1.0310156474819035e-28
676 9.1564316587041214e-29
677 8.1318106896180433e-29
678 7.2218466197585458e-29
679 6.4137091401079651e-29
680 5.6960036757321769e-29
681 5.0586107246297494e-29
682 4.492543174843122e-29
683 3.9898195880331489e-29
684 3.5433516628421309e-29
685 3.1468442913024578e-29
686 2.7947067991072408e-29
687 2.4819741182493752e-29
688 2.2042367805797844e-29
689 1.9575787452086697e-29
690 1.7385221831291363e-29
691 1.5439784405379113e-29
692 1.3712044894461959e-29
693 1.2177642515433598e-29
694 1.0814942499879682e-29
695 9.6047310482357124e-30
696 8.5299444191090102e-30
697 7.575428333980703e-30
698 6.7277243049436177e-30
699 5.9748798727413675e-30
700 5.3062800795041763e-30
701 4.7124977999817586e-30
702 4.1851608209743571e-30
703 3.7168337948093382e-30
704 3.3009134024315673e-30
705 2.9315352479285906e-30
706 2.6034911717225535e-30
707 2.3121558165617326e-30
708 2.0534214109071727e-30
709 1.8236398501734693e-30
710 1.6195712591810134e-30
711 1.4383383105607223e-30
712 1.2773856550100478e-30
713 1.1344438913751024e-30
714 1.0074975685443721e-30
715 8.9475676798718769e-31
716 7.9463186625648702e-31
717 7.0571112161226472e-31
718 6.2674076874160968e-31
719 5.5660734091489534e-31
720 4.9432197032407954e-31
721 4.3900644524104024e-31
722 3.8988082740467555e-31
723 3.4625245504440355e-31
724 3.0750617648490436e-31
725 2.7309567662787297e-31
726 2.4253577401591345e-31
727 2.1539557986870823e-31
728 1.9129242263523783e-31
729 1.6988645239944322e-31
730 1.508758490625234e-31
731 1.3399256673819038e-31
732 1.1899855435769699e-31
733 1.0568239919591699e-31
734 9.3856345992858252e-32
735 8.3353649640812089e-32
736 7.4026224110548443e-32
737 6.5742554466880349e-32
738 5.8385842533427311e-32
739 5.1852360060816073e-32
740 4.6049986178312451e-32
741 4.0896908507239978e-32
742 3.6320469622138515e-32
743 3.2256142594990889e-32
744 2.8646621177891115e-32
745 2.5441011795907646e-32
746 2.2594115957398264e-32
747 2.0065792963902076e-32
748 1.7820393933941461e-32
749 1.5826259160580083e-32
750 1.4055271715575753e-32
751 1.2482461006033192e-32
752 1.1085650693782266e-32
753 9.8451460132132075e-33
754 8.7434560788102729e-33
755 7.7650472669739153e-33
756 6.8961241948626421e-33
757 6.1244352080983085e-33
758 5.4390996347489073e-33
759 4.8304543699031967e-33
760 4.2899176277091017e-33
761 3.8098679398057045e-33
762 3.3835366940498575e-33
763 3.0049126983540762e-33
764 2.6686574240039483e-33
765 2.3700297334020986e-33
766 2.1048190309141585e-33
767 1.8692858942564396e-33
768 1.6601093493391492e-33
769 1.4743400451504288e-33
770 1.309358668456004e-33
771 1.1628390119695391e-33
772 1.0327151752619272e-33
773 9.1715243594852031e-34
774 8.1452138044354342e-34
775 7.2337492953020834e-34
776 6.4242793481138971e-34
777 5.70539058354677e-34
778 5.0669468003817989e-34
779 4.4999460569370087e-34
780 3.9963937453477373e-34
781 3.5491898690667864e-34
782 3.1520289342181947e-34
783 2.7993110432914733e-34
784 2.4860629376139779e-34
785 2.2078678753150313e-34
786 1.9608033560741301e-34
787 1.7413858145838201e-34
788 1.5465215029153483e-34
789 1.3734628692375493e-34
790 1.2197698178370289e-34
791 1.0832753042131008e-34
792 9.6205478014469523e-35
793 8.543990579103327e-35
794 7.5879021105167595e-35
795 6.7388017188589528e-35
796 5.9847172399570341e-35
797 5.3150162169467414e-35
798 4.7202559845542533e-35
799 4.1920505292224609e-35
800 3.7229522478340699e-35
801 3.3063469378510943e-35
802 2.9363605382510751e-35
803 2.6077763063242565e-35
804 2.3159612625397073e-35
805 2.0568008663665005e-35
806 1.826641001990889e-35
807 1.6222364559387327e-35
808 1.4407051601470176e-35
809 1.2794875553201151e-35
810 1.1363105016014968e-35
811 1.0091552277079078e-35
812 8.9622886661468254e-36
813 7.959391764504372e-36
814 7.0687209017039357e-36
815 6.2777177746277799e-36
816 5.5752293776477858e-36
817 4.9513507472278449e-36
818 4.3972853036963739e-36
819 3.9052208210331232e-36
820 3.4682192758666156e-36
821 3.0801190225729012e-36
822 2.7354479151620826e-36
823 2.4293461509869114e-36
824 2.1574977483834669e-36
825 1.9160696920910179e-36
826 1.7016578884123736e-36
827 1.5112391680921415e-36
