# Height(km) O+EscapeFlux(cm^-2s^-1)
105 121450.94570259855
106 117644.86598825827
107 113737.84917770838
108 109756.70193094655
109 105727.58053746169
110 101675.46463365057
111 97623.741144225656
112 93593.89786919138
113 89605.320205208394
114 85675.18036084788
115 81818.405960131349
116 78047.713876936599
117 74373.695202756542
118 70804.938114889956
119 67348.176799412729
120 64008.456254119475
121 60789.304562477417
122 57692.905952658039
123 54720.269543954746
124 51871.390082797225
125 49145.398158467375
126 46540.698362511474
127 44055.094628175932
128 41685.902577968365
129 39430.049143745382
130 37284.160030541942
131 35244.635797506315
132 33307.717449221491
133 31469.542487838116
134 29726.192387147501
135 28073.732427315197
136 26508.244784087346
137 25025.855707114279
138 23622.757554864605
139 22295.226383048754
140 21039.635712846826
141 19852.4670368302
142 18730.317555775979
143 17669.905579502552
144 16668.07396986548
145 15721.791954295832
146 14828.155593665899
147 13984.38714861295
148 13187.833553430597
149 12435.964175888301
150 11726.368014479302
151 11056.750461238957
152 10424.929738045261
153 9828.8330968558985
154 9266.4928593229797
155 8736.042358355804
156 8235.7118332015943
157 7763.8243202396707
158 7318.791573718926
159 6899.1100439194433
160 6503.3569345188771
161 6130.1863561440687
162 5778.3255890605042
163 5446.5714645845492
164 5133.7868719994331
165 4838.8973954317407
166 4560.888083229318
167 4298.8003508114662
168 4051.7290166855
169 3818.8194702943665
170 3599.2649695391351
171 3392.3040651747447
172 3197.2181487788694
173 3013.3291206180106
174 2839.9971734615883
175 2676.6186882062048
176 2522.6242370538007
177 2377.4766899264841
178 2240.6694197868701
179 2111.7246025568247
180 1990.191607382139
181 1875.6454730694616
182 1767.6854666194592
183 1665.9337198924134
184 1570.0339405653208
185 1479.6501936702139
186 1394.4657501391728
187 1314.1819989203225
188 1238.5174193692683
189 1167.2066107605265
190 1099.9993759024119
191 1036.6598559756906
192 976.96571385030586
193 920.70736326522149
194 867.68724138326559
195 817.71912235577133
196 770.62746965032238
197 726.24682500903873
198 684.42123201446179
199 645.003692345177
200 607.85565290387819
201 572.84652209668604
202 539.85321363423463
203 508.75971631247592
204 479.45668831434944
205 451.84107465270091
206 425.81574645003712
207 401.28916082221758
208 378.17504020100012
209 356.39206999471423
210 335.86361354732816
211 316.51744341397153
212 298.28548802571459
213 281.10359286822086
214 264.9112953479314
215 249.6516125658234
216 235.27084126266615
217 221.71836924116457
218 208.94649760959746
219 196.91027322859949
220 185.56733077774331
221 174.87774389164133
222 164.80388484651206
223 155.31029230763946
224 146.36354667600466
225 137.93215259864152
226 129.98642823206666
227 122.49840087155863
228 115.44170858114721
229 108.79150748001753
230 102.52438436070499
231 96.618274333010618
232 91.052383205069916
233 85.807114329519479
234 80.863999658278956
235 76.205634764153501
236 71.815617601314472
237 67.678490789779474
238 63.779687221332445
239 60.10547879593895
240 56.642928108668521
241 53.379842917459996
242 50.304733231806864
243 47.406770871618633
244 44.675751354171091
245 42.10205797521823
246 39.676627958032618
247 37.390920551393002
248 35.236886964375614
249 33.206942032250552
250 31.293937513860541
251 29.491136926586133
252 27.792191830401222
253 26.191119477610101
254 24.682281749655331
255 23.2603653069066
256 21.920362881602365
257 20.657555648133311
258 19.467496608642868
259 18.345994935488655
260 17.289101215472229
261 16.293093543915163
262 15.35446441964684
263 14.469908394786867
264 13.636310435857569
265 12.850734955265469
266 12.110415474547484
267 11.412744883000064
268 10.755266257403893
269 10.135664210530702
270 9.5517567379790744
271 9.0014875346393808
272 8.4829187537404867
273 7.994224182988213
274 7.5336828137730976
275 7.099672780808457
276 6.6906656508632611
277 6.3052210404829063
278 5.9419815437489092
279 5.5996679522197539
280 5.2770747502234885
281 4.9730658696419354
282 4.6865706892397085
283 4.4165802644520964
284 4.1621437743571033
285 3.9223651733214702
286 3.6964000355310245
287 3.4834525812947845
288 3.2827728746520779
289 3.0936541824150896
290 2.9154304853475996
291 2.7474741327161993
292 2.5891936319553666
293 2.4400315656629523
294 2.2994626285912725
295 2.1669917777217158
296 2.042152488908453
297 1.9245051139523701
298 1.8136353323197372
299 1.709152692053713
300 1.6106892347406672
301 1.5178981996889818
302 1.4304528027573939
303 1.348045085532525
304 1.2703848308030099
305 1.1971985405110954
306 1.1282284725825635
307 1.0632317332431693
308 1.0019794216251838
309 0.94425582365172178
310 0.88985765236011738
311 0.83859333198908592
312 0.79028232330855352
313 0.74475448781625642
314 0.70184948856207896
315 0.66141622549008627
316 0.6233123033097524
317 0.58740353002244405
318 0.55356344433716853
319 0.52167287031130027
320 0.491619497647999
321 0.46329748617217664
322 0.43660709309209034
323 0.41145432173409191
324 0.38775059051331878
325 0.36541242097467269
326 0.34436114380547
327 0.32452262178436603
328 0.30582698869093838
329 0.28820840325644259
330 0.27160481728923663
331 0.25595775715828856
332 0.24121211786522684
333 0.22731596897971745
334 0.21422037175474098
335 0.20187920677770455
336 0.19024901155043095
337 0.17928882742603391
338 0.16896005536363887
339 0.15922631999296147
340 0.15005334151002186
341 0.14140881495285054
342 0.13326229643203097
343 0.12558509591541855
344 0.11835017618945337
345 0.11153205764124251
346 0.1051067285260785
347 0.099051560404385314
348 0.093345228450284631
349 0.087967636351132306
350 0.08289984553354339
351 0.078124008466659775
352 0.073623305807773903
353 0.069381887168953604
354 0.065384815296059745
355 0.061618013463591068
356 0.058068215900069123
357 0.054722921069379052
358 0.051570347643558265
359 0.048599393011962144
360 0.045799594180692682
361 0.04316109092458871
362 0.040674591062008943
363 0.038331337730115406
364 0.036123078545409679
365 0.034042036540913645
366 0.032080882777643559
367 0.030232710533922309
368 0.028491010981631908
369 0.026849650263744085
370 0.025302847892402492
371 0.023845156391480292
372 0.022471442111919621
373 0.021176867152289662
374 0.019956872320892369
375 0.018807161079412802
376 0.017723684411567971
377 0.016702626563465404
378 0.015740391605452958
379 0.014833590768133778
380 0.013979030507947897
381 0.013173701260289748
382 0.012414766840553548
383 0.011699554455779561
384 0.011025545291724925
385 0.010390365642209066
386 0.0097917785494936061
387 0.009227675926256276
388 0.0086960711314144866
389 0.0081950919736524779
390 0.0077229741180123261
391 0.0072780548723283397
392 0.0068587673316224543
393 0.00646363485983852
394 0.0060912658894816153
395 0.0057403490208480018
396 0.0054096484035864633
397 0.0050979993843260404
398 0.0048043044050421974
399 0.0045275291377164986
400 0.004266698841677039
401 0.0040208949307910706
402 0.0037892517384203418
403 0.0035709534687461699
404 0.0033652313237274834
405 0.0031713607955737616
406 0.0029886591151976078
407 0.0028164828476610402
408 0.0026542256261472405
409 0.0025013160164773867
410 0.0023572155046519116
411 0.0022214166003287996
412 0.002093441049559829
413 0.0019728381504904653
414 0.0018591831660917193
415 0.0017520758283339889
416 0.0016511389285349205
417 0.0015560169889168775
418 0.0014663750106955423
419 0.0013818972942907276
420 0.0013022863275044619
421 0.0012272617377507803
422 0.0011565593046472258
423 0.0010899300294906439
424 0.0010271392583401915
425 0.00096796585561926283
426 0.00091220142532595356
427 0.00085964957710936267
428 0.00081012523462701744
429 0.00076345398374762176
430 0.00071947145830365583
431 0.00067802276123059258
432 0.00063896191905411597
433 0.00060215136780417751
434 0.00056746146854540246
435 0.00053477005081765147
436 0.00050396198237885083
437 0.0004749287637348166
438 0.00044756814602811535
439 0.00042178377094023657
440 0.00039748483133891321
441 0.00037458575147546023
442 0.00035300588560586272
443 0.00033266923397422694
444 0.00031350417515835308
445 0.00029544321383481454
446 0.00027842274307522766
447 0.00026238282033657853
448 0.00024726695635668953
449 0.00023302191621136776
450 0.00021959753183261352
451 0.00020694652532760155
452 0.0001950243424762198
453 0.0001837889958207768
454 0.00017320091679527599
455 0.00016322281637348788
456 0.0001538195537450638
457 0.00014495801255718529
458 0.0001366069842859014
459 0.00012873705832642618
460 0.00012132051841530832
461 0.00011433124501970006
462 0.00010774462334995898
463 0.00010153745667162649
464 9.568788461148608e-05
465 9.0175306169993529e-05
466 8.4980307168946748e-05
467 8.0084591878881289e-05
468 7.5470918585399417e-05
469 7.1123038867510518e-05
470 6.7025640374136086e-05
471 6.316429289724939e-05
472 5.9525397551732782e-05
473 5.6096138882974179e-05
474 5.2864439733536843e-05
475 4.9818918709952958e-05
476 4.6948850099847895e-05
477 4.4244126098232705e-05
478 4.1695221209933671e-05
479 3.9293158702792341e-05
480 3.7029478993491505e-05
481 3.4896209854668886e-05
482 3.2885838338394535e-05
483 3.0991284317132549e-05
484 2.9205875549004072e-05
485 2.752332417953705e-05
486 2.593770459714673e-05
487 2.4443432564359023e-05
488 2.3035245551281066e-05
489 2.1708184202058073e-05
490 2.0457574869045136e-05
491 1.9279013153183058e-05
492 1.816834839261115e-05
493 1.7121669044889085e-05
494 1.6135288911347134e-05
495 1.5205734155050061e-05
496 1.4329731066654302e-05
497 1.3504194535073165e-05
498 1.2726217182345292e-05
499 1.199305912444235e-05
500 1.1302138321955458e-05
501 1.0651021486677516e-05
502 1.0037415512056422e-05
503 9.4591593973389817e-06
504 8.9142166369641115e-06
505 8.4006680484023424e-06
506 7.9167050131828145e-06
507 7.4606231073041063e-06
508 7.0308160985964783e-06
509 6.6257702898955919e-06
510 6.2440591881054842e-06
511 5.8843384803763769e-06
512 5.5453412997044808e-06
513 5.2258737632802172e-06
514 4.9248107678718489e-06
515 4.641092027436761e-06
516 4.3737183390056496e-06
517 4.1217480636888701e-06
518 3.8842938104117643e-06
519 3.6605193106997507e-06
520 3.4496364735069124e-06
521 3.2509026097156536e-06
522 3.0636178165327981e-06
523 2.8871225125704773e-06
524 2.720795114930858e-06
525 2.5640498501139066e-06
526 2.4163346910386359e-06
527 2.2771294129124528e-06
528 2.1459437611017904e-06
529 2.0223157245516204e-06
530 1.9058099086731951e-06
531 1.7960160019696505e-06
532 1.6925473309992677e-06
533 1.5950394985872267e-06
534 1.5031491004899396e-06
535 1.4165525159923109e-06
536 1.334944768178648e-06
537 1.2580384498633291e-06
538 1.1855627113985833e-06
539 1.117262306794627e-06
540 1.0528966947928076e-06
541 9.9223919172589429e-07
542 9.3507617318208193e-07
543 8.8120632166110189e-07
544 8.3043991757286615e-07
545 7.8259817108166273e-07
546 7.3751259244280021e-07
547 6.9502439861415162e-07
548 6.5498395405280245e-07
549 6.1725024372739921e-07
550 5.816903764902559e-07
551 5.4817911706018958e-07
552 5.1659844496782697e-07
553 4.8683713891007219e-07
554 4.5879038504990757e-07
555 4.3235940788205904e-07
556 4.0745112236447966e-07
557 3.8397780609054751e-07
558 3.6185679034742522e-07
559 3.4101016897255125e-07
560 3.2136452398291287e-07
561 3.0285066701082024e-07
562 2.8540339563557121e-07
563 2.6896126375285238e-07
564 2.5346636517316477e-07
565 2.3886412968714781e-07
566 2.251031308795876e-07
567 2.1213490501526103e-07
568 1.9991378035877562e-07
569 1.8839671632729606e-07
570 1.7754315190968777e-07
571 1.6731486281823916e-07
572 1.5767582686987742e-07
573 1.4859209712277792e-07
574 1.4003168232157799e-07
575 1.3196443423014713e-07
576 1.2436194145512153e-07
577 1.171974293862661e-07
578 1.1044566590128309e-07
579 1.0408287250296491e-07
580 9.8086640575743158e-08
581 9.2435852466701072e-08
582 8.7110607113113291e-08
583 8.2092149954586758e-08
584 7.7362806882967354e-08
585 7.2905921997395903e-08
586 6.8705798945299094e-08
587 6.4747645642729554e-08
588 6.1017522179370407e-08
589 5.750229172473631e-08
590 5.4189574262670225e-08
591 5.1067702991200333e-08
592 4.8125683234203272e-08
593 4.5353153720169714e-08
594 4.2740350091702828e-08
595 4.0278070517237269e-08
596 3.7957643283869662e-08
597 3.5770896257168431e-08
598 3.3710128100406501e-08
599 3.1768081151856232e-08
600 2.9937915864625659e-08
601 2.8213186719017644e-08
602 2.658781952258034e-08
603 2.5056090017903479e-08
604 2.3612603722821452e-08
605 2.2252276932024059e-08
606 2.0970318813166202e-08
607 1.9762214534422267e-08
608 1.8623709364063769e-08
609 1.755079368606176e-08
610 1.6539688878941824e-08
611 1.558683400815963e-08
612 1.4688873285130124e-08
613 1.3842644248743111e-08
614 1.304516662774314e-08
615 1.2293631844748735e-08
616 1.158539312494617e-08
617 1.0917956174622506e-08
618 1.0288970396709284e-08
619 9.6962206123997522e-09
620 9.1376192596846198e-09
621 8.6111990413310396e-09
622 8.1151059964123614e-09
623 7.6475929709879149e-09
624 7.2070134649374399e-09
625 6.7918158332805628e-09
626 6.4005378215585217e-09
627 6.0318014160334199e-09
628 5.6843079905680743e-09
629 5.3568337330947423e-09
630 5.0482253355655352e-09
631 4.7573959322053355e-09
632 4.4833212717624843e-09
633 4.2250361102766137e-09
634 3.9816308116595602e-09
635 3.7522481441173115e-09
636 3.5360802611304515e-09
637 3.3323658563607807e-09
638 3.1403874824641227e-09
639 2.9594690243666998e-09
640 2.7889733181064078e-09
641 2.6282999068529797e-09
642 2.4768829262041396e-09
643 2.3341891113101521e-09
644 2.1997159188082085e-09
645 2.0729897569524483e-09
646 1.9535643177064439e-09
647 1.8410190049241065e-09
648 1.7349574530832804e-09
649 1.6350061313553597e-09
650 1.5408130280946457e-09
651 1.4520464111144794e-09
652 1.3683936593840536e-09
653 1.2895601620313574e-09
654 1.2152682807747285e-09
655 1.1452563721288943e-09
656 1.0792778659418731e-09
657 1.017100397017516e-09
658 9.5850498676541283e-10
659 9.0328527199607555e-10
660 8.5124677814537345e-10
661 8.0220623436861029e-10
662 7.5599092809215775e-10
663 7.12438096749473e-10
664 6.7139435455930759e-10
665 6.3271515232732391e-10
666 5.9626426836863053e-10
667 5.6191332875835901e-10
668 5.2954135522068936e-10
669 4.9903433906406693e-10
670 4.7028483966208804e-10
671 4.4319160606596968e-10
672 4.1765922041599789e-10
673 3.9359776189610229e-10
674 3.7092249004807054e-10
675 3.4955354633008752e-10
676 3.2941567286854328e-10
677 3.1043794741260033e-10
678 2.9255353355807744e-10
679 2.7569944536098275e-10
680 2.5981632551170536e-10
681 2.4484823628863333e-10
682 2.3074246255497446e-10
683 2.1744932610496707e-10
684 2.0492201070564181e-10
685 1.9311639721796156e-10
686 1.8199090821666424e-10
687 1.7150636156158744e-10
688 1.6162583240477746e-10
689 1.5231452314739639e-10
690 1.4353964088843789e-10
691 1.3527028193364676e-10
692 1.2747732295790286e-10
693 1.2013331843776282e-10
694 1.1321240399293252e-10
695 1.0669020529625928e-10
696 1.0054375223143618e-10
697 9.4751397996099871e-11
698 8.9292742865415488e-11
699 8.4148562347657354e-11
700 7.9300739478761883e-11
701 7.4732201017405619e-11
702 7.0426857315898348e-11
703 6.6369545655126762e-11
704 6.2545976843984512e-11
705 5.8942684895220177e-11
706 5.5546979600470827e-11
707 5.2346901837458396e-11
708 4.9331181451947792e-11
709 4.648919756613493e-11
710 4.3810941173677267e-11
711 4.1286979889632918e-11
712 3.8908424731163664e-11
713 3.6666898812008996e-11
714 3.4554507840478695e-11
715 3.2563812317062599e-11
716 3.0687801333742487e-11
717 2.8919867882731448e-11
718 2.7253785587682561e-11
719 2.5683686775417919e-11
720 2.4204041810950419e-11
721 2.2809639623019747e-11
722 2.1495569351556802e-11
723 2.0257203052441894e-11
724 1.9090179398645969e-11
725 1.7990388320352929e-11
726 1.695395652996811e-11
727 1.5977233881034437e-11
728 1.505678051301477e-11
729 1.4189354736666318e-11
730 1.3371901617341624e-11
731 1.2601542216008283e-11
732 1.1875563450096169e-11
733 1.1191408538463688e-11
734 1.0546667996831881e-11
735 9.9390711519737727e-12
736 9.3664781447733592e-12
737 8.8268723939903447e-12
738 8.3183534941892674e-12
739 7.8391305228206944e-12
740 7.3875157328831293e-12
741 6.961918608952282e-12
742 6.5608402656439595e-12
743 6.1828681687829336e-12
744 5.8266711606866162e-12
745 5.4909947720434006e-12
746 5.1746568038748919e-12
747 4.8765431640224327e-12
748 4.595603943494694e-12
749 4.3308497188579155e-12
750 4.081348067646382e-12
751 3.8462202845210313e-12
752 3.6246382866109973e-12
753 3.4158216971392314e-12
754 3.2190350970612676e-12
755 3.0335854350377442e-12
756 2.8588195866191208e-12
757 2.6941220540464086e-12
758 2.5389127985669897e-12
759 2.3926451976312988e-12
760 2.2548041197759574e-12
761 2.1249041104134029e-12
762 2.0024876821386638e-12
763 1.8871237035320336e-12
764 1.7784058807832409e-12
765 1.6759513267896898e-12
766 1.579399212689317e-12
767 1.4884094970790246e-12
768 1.4026617284431811e-12
769 1.3218539165745474e-12
770 1.2457014690129579e-12
771 1.1739361887560596e-12
772 1.1063053297122162e-12
773 1.0425707065690329e-12
774 9.8250785594260425e-13
775 9.2590524585318902e-13
776 8.725635307432104e-13
777 8.222948494138876e-13
778 7.7492216340792698e-13
779 7.3027863350817855e-13
780 6.8820703215638139e-13
781 6.4855918972263264e-13
782 6.111954726754306e-13
783 5.7598429181448995e-13
784 5.4280163883440793e-13
785 5.1153064958703019e-13
786 4.8206119250439651e-13
787 4.5428948073276299e-13
788 4.2811770661169203e-13
789 4.0345369721091149e-13
790 3.8021058971179466e-13
791 3.5830652549020794e-13
792 3.3766436182333651e-13
793 3.1821140020516302e-13
794 2.9987913031377305e-13
795 2.8260298872877926e-13
796 2.6632213154910626e-13
797 2.5097922011033246e-13
798 2.3652021904692044e-13
799 2.2289420598813951e-13
800 2.1005319221746904e-13
801 1.9795195366386152e-13
802 1.865478716296526e-13
803 1.7580078269418401e-13
804 1.6567283726452385e-13
805 1.5612836627512267e-13
806 1.4713375556694357e-13
807 1.3865732750364757e-13
808 1.3066922940790813e-13
809 1.2314132842494236e-13
810 1.1604711244298777e-13
811 1.0936159672177975e-13
812 1.0306123590019148e-13
813 9.7123841073141217e-14
814 9.1528501645724316e-14
815 8.6255511689352991e-14
816 8.1286300540541702e-14
817 7.6603367397918407e-14
818 7.2190219687121954e-14
819 6.8031314976517515e-14
820 6.4112006239165394e-14
821 6.0418490268265483e-14
822 5.6937759064403602e-14
823 5.3657554023394844e-14
824 5.0566322763378671e-14
825 4.7653178439119498e-14
826 4.490786140022311e-14
827 4.2320703058235437e-14
828 3.9882591835369238e-14
829 3.7584941074935617e-14
830 3.5419658800465813e-14
831 3.3379119217019718e-14
832 3.145613585431308e-14
833 2.9643936257077979e-14
834 2.7936138133519511e-14
835 2.6326726877868024e-14
836 2.4810034387863997e-14
837 2.3380719102574729e-14
838 2.2033747190238843e-14
839 2.0764374819885182e-14
840 1.9568131454289544e-14
841 1.8440804105429687e-14
842 1.7378422496988663e-14
843 1.6377245081651281e-14
844 1.5433745863948682e-14
845 1.4544601982243185e-14
846 1.3706682006119098e-14
847 1.2917034907964733e-14
848 1.2172879669905227e-14
849 1.1471595489483388e-14
850 1.0810712549594579e-14
851 1.0187903320168702e-14
852 9.6009743609651929e-15
853 9.0478585966117419e-15
854 8.5266080366806195e-15
855 8.0353869151638649e-15
856 7.5724652251856046e-15
857 7.1362126261817637e-15
