# Height(km) N2+ProductionRate(cm^-3s^-1)
105 1032.7021585591942
106 1384.267179173761
107 1790.3671126773431
108 2243.4665165611946
109 2734.0613856673535
110 3252.1720684217853
111 3789.1521861546057
112 4339.9334129832969
113 4905.8618148716732
114 5498.0913954355619
115 6141.1089858035621
116 6875.5636481708598
117 7759.4141831278375
118 8866.6290586348186
119 10283.205452964996
120 12100.892237826461
121 14409.466557482479
122 17288.598833546566
123 20800.267671270634
124 24982.470444416012
125 29844.74055415198
126 35365.790447104046
127 41493.435639645832
128 48146.766768710389
129 55220.296583086732
130 62589.553550329569
131 70117.410552965666
132 77660.40790659115
133 85074.476192273025
134 92219.731250216282
135 98964.299572454984
136 105187.3405869492
137 110781.51202519954
138 115655.08213973451
139 119733.77604103774
140 122962.31432492752
141 125305.51030586007
142 126748.76257511486
143 127297.81170008986
144 126977.7050085146
145 125831.00525688454
146 123915.36299202986
147 121300.63175609564
148 118065.73296711204
149 114295.4749700705
150 110077.50559037001
151 105499.53883324933
152 100646.95284770348
153 95600.814449415819
154 90436.349331318706
155 85221.848288920883
156 80017.978501181395
157 74877.454457638596
158 69845.014541737561
159 64957.645598561823
160 60244.998121987817
161 55729.938115116754
162 51429.187324634288
163 47354.010554652756
164 43510.916328935396
165 39902.344631192769
166 36527.32233309665
167 33382.072930605478
168 30460.572228450073
169 27755.045640524284
170 25256.405888402311
171 22954.632198328054
172 20839.093747643921
173 18898.821218931535
174 17122.730995480455
175 15499.806871083903
176 14019.24423121739
177 12670.5615583491
178 11443.683876322413
179 10329.002421940353
180 9317.414451582019
181 8400.3466847281234
182 7569.7654757148021
183 6818.1764055530493
184 6138.6156078981248
185 5524.6347943274786
186 4970.2816278770297
187 4470.0768119046215
188 4018.98901365847
189 3612.4085270679207
190 3246.1203950761819
191 2916.2775556550414
192 2619.3744445999014
193 2352.2213793814308
194 2111.9199588846873
195 1895.8396411264248
196 1701.5956025515286
197 1527.0279360591724
198 1370.1822085709803
199 1229.2913707173423
200 1102.7589908092993
201 989.14376853208216
202 887.14527409005473
203 795.59085041509138
204 713.42361186216829
205 639.69147056949078
206 573.53712119042939
207 514.188915546266
208 460.95256059539656
209 413.20357555226661
210 370.38044713165141
211 331.97842505698998
212 297.54390354326347
213 266.66933798334776
214 238.98864960959523
215 214.1730743671811
216 191.92741559761194
217 171.98666332597662
218 154.11294600632846
219 138.09278344026404
220 123.73461131390044
221 110.86655723556227
222 99.334429038334449
223 88.999915159472238
224 79.73896074347067
225 71.440308635840339
226 64.004187910235686
227 57.341135315078581
228 51.37093642074494
229 46.021674518057694
230 41.228876477155019
231 36.934745824698055
232 33.087474253740815
233 29.640623641123408
234 26.552571437302589
235 23.786012995444779
236 21.307515051749011
237 19.087115146495812
238 17.097962298292043
239 15.315994715657771
240 13.719650755452445
241 12.289609721009795
242 11.008559438227389
243 9.8609878588657871
244 8.8329962202636363
245 7.912131542577062
246 7.087236471239887
247 6.348314676094672
248 5.6864102018145175
249 5.093499328856387
250 4.5623936521021085
251 4.0866532172185446
252 3.6605086741081347
253 3.2787915139840025
254 2.9368715528148748
255 2.630600910250227
256 2.3562638106504084
257 2.1105316024079031
258 1.8904224541618622
259 1.6932652425060697
260 1.5166671960247058
261 1.3584849055493544
262 1.2167983509438538
263 1.0898876309666201
264 0.97621211526031715
265 0.87439176666152718
266 0.78319040815082996
267 0.70150073219052711
268 0.62833087119737363
269 0.56279236672364386
270 0.50408939179511669
271 0.45150909598038508
272 0.40441295632322072
273 0.36222902942036317
274 0.32444501081816352
275 0.2906020176569839
276 0.26028901924465053
277 0.23313784807082483
278 0.20881873080136618
279 0.18703628509775275
280 0.16752593364245014
281 0.15005069212263056
282 0.1343982919039983
283 0.12037860274776688
284 0.10782132420775375
285 0.096573917702141104
286 0.086499754292188563
287 0.077476455386189608
288 0.069394406662587296
289 0.062155426846392817
290 0.055671575321773643
291 0.049864084085283505
292 0.044662401076366667
293 0.040003333272856226
294 0.035830279149527945
295 0.032092541181760859
296 0.02874471004947218
297 0.025746113060925471
298 0.023060320105047792
299 0.02065470112920444
300 0.018500029770872735
301 0.016570128329812608
302 0.014841549769474761
303 0.013293292885919749
304 0.011906547185189619
305 0.010664464370767568
306 0.0095519536658512892
307 0.0085554984845721428
308 0.007662992225525446
309 0.0068635911931818738
310 0.0061475828607434353
311 0.0055062678743135404
312 0.0049318543651300463
313 0.0044173632860880557
314 0.0039565436226698001
315 0.003543796448327217
316 0.0031741069017846334
317 0.0028429832599480864
318 0.0025464023662927623
319 0.002280760751796188
320 0.0020428308546307666
321 0.0018297218067631991
322 0.0016388443110831
323 0.0014678791823720394
324 0.0013147491699306991
325 0.0011775937195462694
326 0.0010547463681887964
327 0.00094471449680750197
328 0.00084616119524454731
329 0.00075788901894223762
330 0.00067882544010186921
331 0.00060800981653744797
332 0.00054458171990601017
333 0.00048777048150635768
334 0.00043688582864411668
335 0.00039130949778613019
336 0.00035048772261884738
337 0.0003139245057394947
338 0.00028117559223443949
339 0.00025184307192578517
340 0.00022557054470510843
341 0.0002020387902143843
342 0.00018096188926167045
343 0.00016208374984745633
344 0.00014517499559340877
345 0.00013003017853042916
346 0.00011646528384943214
347 0.0001043154925228841
348 9.3433179791867441e-05
349 8.3686121202307601e-05
350 7.4955886040456909e-05
351 6.7136398364998827e-05
352 6.0132648152218047e-05
353 5.3859536894528429e-05
354 4.824084362625912e-05
355 4.3208298813777843e-05
356 3.8700754857580047e-05
357 3.4663443127811073e-05
358 3.1047308506068364e-05
359 2.7808413348037946e-05
360 2.490740362498699e-05
361 2.2309030757612958e-05
362 1.9981723332416625e-05
363 1.7897203496851018e-05
364 1.6030143372341991e-05
365 1.4357857310510207e-05
366 1.2860026253419274e-05
367 1.1518450848746969e-05
368 1.0316830320154486e-05
369 9.2405644060605857e-06
370 8.2765759603128141e-06
371 7.4131520592964762e-06
372 6.6398016848791771e-06
373 5.9471282539899859e-06
374 5.326715446022889e-06
375 4.7710249408267202e-06
376 4.2733048247609176e-06
377 3.8275075519167558e-06
378 3.4282164637019787e-06
379 3.0705799739737147e-06
380 2.750252620043467e-06
381 2.463342263300705e-06
382 2.2063627979215776e-06
383 1.9761917930544663e-06
384 1.7700325538175937e-06
385 1.5853801401342325e-06
386 1.4199909305200197e-06
387 1.2718553610096714e-06
388 1.1391735079893861e-06
389 1.0203332182558577e-06
390 9.1389052057262516e-07
391 8.1855208071559441e-07
392 7.3315948682878936e-07
393 6.5667517415041637e-07
394 5.8816981808835648e-07
395 5.2681104246525573e-07
396 4.7185330573326584e-07
397 4.2262884227130693e-07
398 3.7853954869743851e-07
399 3.390497166113007e-07
400 3.0367952346599623e-07
401 2.7199920248053446e-07
402 2.4362382075443763e-07
403 2.1820860213620441e-07
404 1.9544473801618038e-07
405 1.750556351430235e-07
406 1.5679355487287311e-07
407 1.4043660301651962e-07
408 1.2578603370971294e-07
409 1.1266383454735367e-07
410 1.0091056363972975e-07
411 9.0383412309990972e-08
412 8.095446989366573e-08
413 7.250916955666662e-08
414 6.4944896247714385e-08
415 5.8169739871086364e-08
416 5.2101378530128711e-08
417 4.6666078272362254e-08
418 4.1797797182592305e-08
419 3.7437382938286092e-08
420 3.353185407711769e-08
421 3.0033756243703136e-08
422 2.690058559360246e-08
423 2.4094272348642184e-08
424 2.1580718228495769e-08
425 1.9329382138069722e-08
426 1.7312909076587632e-08
427 1.5506797759418909e-08
428 1.3889102914087537e-08
429 1.2440168633199734e-08
430 1.1142389544387493e-08
431 9.9799968953594635e-09
432 8.9388669548765751e-09
433 8.0063494019621365e-09
434 7.1711136161040683e-09
435 6.4230110061386819e-09
436 5.7529516977060427e-09
437 5.152794086624193e-09
438 4.6152459138639847e-09
439 4.133775660533947e-09
440 3.7025331862752458e-09
441 3.3162786467815023e-09
442 2.970318826751838e-09
443 2.6604501146887746e-09
444 2.382907426653388e-09
445 2.1343184583734034e-09
446 1.9116627098428182e-09
447 1.7122347845389511e-09
448 1.5336115173228281e-09
449 1.3736225316083412e-09
450 1.2303238680540177e-09
451 1.1019743643510753e-09
452 9.870144991094719e-10
453 8.8404744278315715e-10
454 7.9182208539302561e-10
455 7.0921783482472728e-10
456 6.352310009924181e-10
457 5.6896260042824357e-10
458 5.0960743311668822e-10
459 4.5644429885105482e-10
460 4.0882723423544312e-10
461 3.6617766385682544e-10
462 3.2797737025952591e-10
463 2.9376219730340413e-10
464 2.6311641039790624e-10
465 2.3566764508572231e-10
466 2.1108238259840792e-10
467 1.8906189740947205e-10
468 1.6933862754534234e-10
469 1.5167292355147319e-10
470 1.3585013661163816e-10
471 1.2167801043943656e-10
472 1.0898434525196934e-10
473 9.7614905441661618e-11
474 8.7431545523216316e-11
475 7.8310531584906806e-11
476 7.0141037848853055e-11
477 6.2823800072643382e-11
478 5.6269909430346648e-11
479 5.0399732217871046e-11
480 4.5141942256476547e-11
481 4.0432654237571251e-11
482 3.6214647478441561e-11
483 3.2436670657087066e-11
484 2.9052819078295128e-11
485 2.6021976904367011e-11
486 2.3307317573282348e-11
487 2.0875856334084626e-11
488 1.869804946253791e-11
489 1.6747435287285455e-11
490 1.5000312664773143e-11
491 1.3435452996215526e-11
492 1.2033842287445721e-11
493 1.0778450117521741e-11
494 9.6540227089246076e-12
495 8.6468975850285314e-12
496 7.7448375628216046e-12
497 6.9368820637926169e-12
498 6.2132139363214742e-12
499 5.565040171388567e-12
500 4.9844850622267532e-12
501 4.4644945097440203e-12
502 3.9987503109697145e-12
503 3.5815933890793352e-12
504 3.2079550321960609e-12
505 2.8732953054805793e-12
506 2.5735478881786157e-12
507 2.3050706653642364e-12
508 2.0646014740384897e-12
509 1.8492184658726888e-12
510 1.6563046049795069e-12
511 1.4835158693389669e-12
512 1.3287527695074781e-12
513 1.1901348385450961e-12
514 1.0659777831986041e-12
515 9.5477301871328286e-13
516 8.5516933860933321e-13
517 7.6595649669947686e-13
518 6.8605050185960307e-13
519 6.1448044687487376e-13
520 5.5037671132401851e-13
521 4.9296039515959087e-13
522 4.4153385459596002e-13
523 3.9547222531022802e-13
524 3.542158299579671e-13
525 3.1726337775038885e-13
526 2.8416587346379568e-13
527 2.5452116187199854e-13
528 2.2796904131332033e-13
529 2.041868870190248e-13
530 1.8288573102394556e-13
531 1.6380675102788735e-13
532 1.4671812554528288e-13
533 1.3141221713130499e-13
534 1.1770304945887692e-13
535 1.054240475915641e-13
536 9.4426013995253802e-14
537 8.4575315695958103e-14
538 7.5752260556574478e-14
539 6.7849642943397971e-14
540 6.0771441111322639e-14
541 5.4431650480184386e-14
542 4.8753238625821233e-14
543 4.3667209288367324e-14
544 3.9111764024894312e-14
545 3.5031551319975206e-14
546 3.1376994030398717e-14
547 2.8103686992071967e-14
548 2.5171857469671525e-14
549 2.2545881893166624e-14
550 2.0193853009272767e-14
551 1.8087192188453003e-14
552 1.6200302176763584e-14
553 1.4510256073259834e-14
554 1.2996518753850077e-14
555 1.1640697356721575e-14
556 1.0426317797585719e-14
557 9.3386245992613874e-15
558 8.3644016034048559e-15
559 7.491811385920343e-15
560 6.7102514248511643e-15
561 6.0102252731002777e-15
562 5.383227170650416e-15
563 4.8216386942499789e-15
564 4.3186361887939281e-15
565 3.8681078556344028e-15
566 3.4645794903914037e-15
567 3.1031479679327623e-15
568 2.7794216663236441e-15
569 2.4894671058602575e-15
570 2.2297611548180977e-15
571 1.9971482211854079e-15
572 1.7888019102341539e-15
573 1.6021906820446014e-15
574 1.4350470917005112e-15
575 1.2853402384045342e-15
576 1.151251088752967e-15
577 1.0311503743325676e-15
578 9.2357879508110785e-16
579 8.2722928787033614e-16
580 7.4093114486342321e-16
581 6.636357886749418e-16
582 5.9440403149280805e-16
583 5.3239466335234617e-16
584 4.7685423090301675e-16
585 4.2710788247325711e-16
586 3.8255116819535871e-16
587 3.4264269555662453e-16
588 3.0689755113724729e-16
589 2.7488140860478612e-16
590 2.4620525137375948e-16
591 2.2052064580726352e-16
592 1.975155075271129e-16
593 1.7691030939043933e-16
594 1.5845468505733161e-16
595 1.4192438688067186e-16
596 1.2711856115464811e-16
597 1.1385730761447536e-16
598 1.0197949353370023e-16
599 9.1340795859011681e-17
