# Distance(m) MassDensity(kg/m^3)
0 0.1057546018332769
7645.3529070581408 0.1057546007202466
15290.705814116282 0.10575459738115586
22936.05872117442 0.10575459181600511
30581.411628232563 0.10575458402479505
38226.764535290706 0.10575457400752662
45872.117442348841 0.10575456176420116
53517.470349406984 0.10575454729482013
61162.823256465126 0.10575453059938543
68808.176163523269 0.10575451167789914
76453.529070581411 0.10575449053036368
84098.881977639554 0.10575446715678166
91744.234884697682 0.10575444155715608
99389.587791755825 0.10575441373149014
107034.94069881397 0.1057543836797874
114680.29360587211 0.10575435140205158
122325.64651293025 0.10575431689828686
129970.99941998839 0.10575428016849751
137616.35232704654 0.10575424121268823
145261.70523410468 0.10575420003086387
152907.05814116282 0.10575415662302969
160552.41104822097 0.10575411098919116
168197.76395527911 0.10575406312935405
175843.11686233725 0.10575401304352439
183488.46976939536 0.10575396073170847
191133.82267645351 0.10575390619391295
198779.17558351165 0.10575384943014474
206424.52849056979 0.10575379044041092
214069.88139762793 0.10575372922471901
221715.23430468608 0.1057536657830767
229360.58721174422 0.10575360011549205
237005.94011880236 0.10575353222197333
244651.2930258605 0.10575346210252907
252296.64593291865 0.10575338975716822
259941.99883997679 0.10575331518589984
267587.35174703493 0.10575323838873339
275232.70465409308 0.10575315936567851
282878.05756115122 0.10575307811674527
290523.41046820936 0.10575299464194383
298168.7633752675 0.10575290894128481
305814.11628232565 0.10575282101477901
313459.46918938379 0.10575273086243751
321104.82209644193 0.10575263848427174
328750.17500350007 0.10575254388029334
336395.52791055822 0.10575244705051424
344040.88081761636 0.10575234799494672
351686.2337246745 0.10575224671360321
359331.58663173264 0.10575214320649658
366976.93953879073 0.10575203747363987
374622.29244584887 0.10575192951504642
382267.64535290701 0.1057518193307299
389912.99825996516 0.10575170692070417
397558.3511670233 0.10575159228498346
405203.70407408144 0.10575147542358226
412849.05698113958 0.10575135633651529
420494.40988819773 0.10575123502379762
428139.76279525587 0.10575111148544457
435785.11570231401 0.10575098572147175
443430.46860937215 0.10575085773189496
451075.8215164303 0.10575072751673047
458721.17442348844 0.1057505950759947
466366.52733054658 0.1057504604097043
474011.88023760472 0.10575032351787636
481657.23314466287 0.10575018440052812
489302.58605172101 0.1057500430576772
496947.93895877915 0.10574989948934137
504593.29186583729 0.10574975369553882
512238.64477289544 0.10574960567628794
519883.99767995358 0.10574945543160744
527529.35058701166 0.10574930296151624
535174.70349406986 0.10574914826603368
542820.05640112795 0.10574899134517922
550465.40930818615 0.1057488321989727
558110.76221524423 0.10574867082743424
565756.11512230244 0.10574850723058415
573401.46802936052 0.10574834140844318
581046.82093641872 0.10574817336103219
588692.1738434768 0.10574800308837244
596337.52675053501 0.10574783059048543
603982.87965759309 0.1057476558673929
611628.23256465129 0.105747478919117
619273.58547170938 0.10574729974567999
626918.93837876758 0.10574711834710451
634564.29128582566 0.10574693472341351
642209.64419288386 0.10574674887463012
649854.99709994195 0.10574656080077784
657500.35000700015 0.1057463705018804
665145.70291405823 0.10574617797796186
672791.05582111643 0.10574598322904648
680436.40872817452 0.1057457862551589
688081.76163523272 0.10574558705632396
695727.1145422908 0.10574538563256683
703372.467449349 0.1057451819839129
711017.82035640709 0.10574497611038794
718663.17326346529 0.1057447680120179
726308.52617052337 0.10574455768882911
733953.87907758146 0.10574434514084803
741599.23198463966 0.10574413036810158
749244.58489169774 0.10574391337061687
756889.93779875594 0.10574369414842129
764535.29070581403 0.10574347270154248
772180.64361287223 0.10574324903000845
779825.99651993031 0.1057430231338474
787471.34942698851 0.10574279501308786
795116.7023340466 0.10574256466775862
802762.0552411048 0.10574233209788882
810407.40814816288 0.10574209730350778
818052.76105522108 0.10574186028464511
825698.11396227917 0.10574162104133082
833343.46686933737 0.10574137957359502
840988.81977639545 0.10574113588146829
848634.17268345365 0.10574088996498129
856279.52559051174 0.10574064182416515
863924.87849756994 0.10574039145905115
871570.23140462802 0.10574013886967094
879215.58431168622 0.10573988405605635
886860.93721874431 0.10573962701823961
894506.29012580251 0.10573936775625312
902151.64303286059 0.10573910627012965
909796.99593991879 0.10573884255990219
917442.34884697688 0.10573857662560401
925087.70175403508 0.10573830846726873
932733.05466109316 0.10573803808493017
940378.40756815136 0.10573776547862243
948023.76047520945 0.10573749064838001
955669.11338226765 0.10573721359423753
963314.46628932573 0.10573693431622998
970959.81919638393 0.10573665281439264
978605.17210344202 0.105736369088761
986250.5250105001 0.10573608313937091
993895.8779175583 0.10573579496625844
1001541.2308246164 0.10573550456946
1009186.5837316746 0.10573521194901224
1016831.9366387327 0.10573491710495206
1024477.2895457909 0.10573462003731672
1032122.642452849 0.10573432074614368
1039767.9953599072 0.10573401923147073
1047413.3482669652 0.10573371549333596
1055058.7011740233 0.10573340953177766
1062704.0540810816 0.10573310134683449
1070349.4069881397 0.10573279093854532
1077994.7598951978 0.10573247830694933
1085640.1128022559 0.105732163452086
1093285.4657093142 0.10573184637399505
1100930.8186163723 0.10573152707271652
1108576.1715234304 0.10573120554829069
1116221.5244304885 0.10573088180075813
1123866.8773375468 0.10573055583015975
1131512.2302446049 0.10573022763653665
1139157.583151663 0.10572989721993026
1146802.936058721 0.10572956458038227
1154448.2889657794 0.10572922971793469
1162093.6418728374 0.10572889263262976
1169738.9947798955 0.10572855332451003
1177384.3476869536 0.10572821179361828
1185029.7005940119 0.1057278680399977
1192675.05350107 0.1057275220636916
1200320.4064081281 0.10572717386474366
1207965.7593151862 0.10572682344319784
1215611.1122222445 0.10572647079909836
1223256.4651293026 0.10572611593248969
1230901.8180363607 0.10572575884341663
1238547.1709434188 0.10572539953192425
1246192.5238504768 0.10572503799805789
1253837.8767575352 0.10572467424186317
1261483.2296645932 0.105724308263386
1269128.5825716513 0.10572394006267252
1276773.9354787094 0.10572356963976927
1284419.2883857677 0.10572319699472291
1292064.6412928258 0.10572282212758052
1299709.9941998839 0.10572244503838937
1307355.347106942 0.10572206572719706
1315000.7000140003 0.10572168419405144
1322646.0529210584 0.10572130043900067
1330291.4058281165 0.10572091446209314
1337936.7587351745 0.10572052626337756
1345582.1116422329 0.10572013584290293
1353227.4645492909 0.1057197432007185
1360872.817456349 0.1057193483368738
1368518.1703634071 0.10571895125141868
1376163.5232704654 0.10571855194440319
1383808.8761775235 0.10571815041587777
1391454.2290845816 0.10571774666589301
1399099.5819916397 0.10571734069449992
1406744.934898698 0.10571693250174967
1414390.2878057561 0.10571652208769376
1422035.6407128142 0.10571610945238401
1429680.9936198723 0.10571569459587242
1437326.3465269306 0.10571527751821139
1444971.6994339887 0.10571485821945349
1452617.0523410467 0.10571443669965162
1460262.4052481048 0.10571401295885896
1467907.7581551629 0.10571358699712897
1475553.1110622212 0.1057131588145154
1483198.4639692793 0.10571272841107225
1490843.8168763374 0.10571229578685382
1498489.1697833955 0.10571186094191465
1506134.5226904538 0.10571142387630963
1513779.8755975119 0.10571098459009388
1521425.22850457 0.10571054308332282
1529070.5814116281 0.10571009935605213
1536715.9343186864 0.10570965340833779
1544361.2872257445 0.10570920524023607
1552006.6401328025 0.10570875485180345
1559651.9930398606 0.10570830224309674
1567297.3459469189 0.10570784741417308
1574942.698853977 0.10570739036508982
1582588.0517610351 0.10570693109590458
1590233.4046680932 0.10570646960667529
1597878.7575751515 0.10570600589746017
1605524.1104822096 0.1057055399683177
1613169.4633892677 0.10570507181930663
1620814.8162963258 0.10570460145048605
1628460.1692033841 0.10570412886191521
1636105.5221104422 0.10570365405365377
1643750.8750175002 0.10570317702576161
1651396.2279245583 0.10570269777829884
1659041.5808316167 0.10570221631132594
1666686.9337386747 0.10570173262490358
1674332.2866457328 0.10570124671909284
1681977.6395527909 0.10570075859395489
1689622.9924598492 0.10570026824955139
1697268.3453669073 0.1056997756859441
1704913.6982739654 0.10569928090319515
1712559.0511810235 0.10569878390136693
1720204.4040880816 0.10569828468052214
1727849.7569951399 0.10569778324072369
1735495.109902198 0.10569727958203484
1743140.462809256 0.10569677370451908
1750785.8157163141 0.10569626560824019
1758431.1686233724 0.10569575529326222
1766076.5215304305 0.10569524275964956
1773721.8744374886 0.10569472800746682
1781367.2273445467 0.1056942110367789
1789012.580251605 0.1056936918476509
1796657.9331586631 0.10569317044014839
1804303.2860657212 0.1056926468143371
1811948.6389727793 0.10569212097028299
1819593.9918798376 0.10569159290805234
1827239.3447868957 0.1056910626277118
1834884.6976939538 0.10569053012932816
1842530.0506010118 0.10568999541296858
1850175.4035080702 0.10568945847870047
1857820.7564151282 0.1056889193265915
1865466.1093221863 0.10568837795670964
1873111.4622292444 0.10568783436912316
1880756.8151363027 0.10568728856390053
1888402.1680433608 0.10568674054111063
1896047.5209504189 0.10568619030082245
1903692.873857477 0.1056856378431054
1911338.2267645353 0.10568508316802916
1918983.5796715934 0.10568452627566356
1926628.9325786515 0.10568396716607883
1934274.2854857096 0.10568340583934545
1941919.6383927679 0.10568284229553417
1949564.991299826 0.105682276534716
1957210.344206884 0.10568170855696225
1964855.6971139421 0.10568113836234456
1972501.0500210002 0.10568056595093471
1980146.4029280585 0.10567999132280491
1987791.7558351166 0.10567941447802755
1995437.1087421747 0.1056788354166753
2003082.4616492328 0.10567825413882119
2010727.8145562911 0.10567767064453847
2018373.1674633492 0.10567708493390063
2026018.5203704073 0.10567649700698148
2033663.8732774653 0.1056759068638552
2041309.2261845237 0.10567531450459605
2048954.5790915817 0.1056747199292787
2056599.9319986398 0.10567412313797812
2064245.2849056979 0.10567352413076947
2071890.6378127562 0.10567292290772824
2079535.9907198143 0.1056723194689302
2087181.3436268724 0.10567171381445133
2094826.6965339305 0.105671105944368
2102472.0494409888 0.1056704958587568
2110117.4023480467 0.10566988355769456
2117762.755255105 0.10566926904125848
2125408.1081621633 0.10566865230952591
2133053.4610692211 0.10566803336257462
2140698.8139762795 0.10566741220048255
2148344.1668833378 0.10566678882332799
2155989.5197903956 0.10566616323118942
2163634.8726974539 0.1056655354241457
2171280.2256045118 0.10566490540227591
2178925.5785115701 0.10566427316565941
2186570.9314186284 0.10566363871437583
2194216.2843256863 0.10566300204850515
2201861.6372327446 0.10566236316812749
2209506.9901398025 0.1056617220733234
2217152.3430468608 0.10566107876417358
2224797.6959539191 0.10566043324075911
2232443.0488609769 0.10565978550316125
2240088.4017680353 0.10565913555146164
2247733.7546750936 0.10565848338574209
2255379.1075821514 0.10565782900608478
2263024.4604892097 0.10565717241257211
2270669.8133962676 0.10565651360528681
2278315.1663033259 0.10565585258431182
2285960.5192103842 0.10565518934973039
2293605.8721174421 0.10565452390162609
2301251.2250245004 0.10565385624008268
2308896.5779315587 0.10565318636518425
2316541.9308386166 0.10565251427701519
2324187.2837456749 0.10565183997566011
2331832.6366527327 0.1056511634612039
2339477.9895597911 0.10565048473373179
2347123.3424668494 0.10564980379332928
2354768.6953739072 0.10564912064008201
2362414.0482809655 0.10564843527407612
2370059.4011880239 0.10564774769539782
2377704.7540950817 0.10564705790413377
2385350.10700214 0.10564636590037071
2392995.4599091979 0.10564567168419589
2400640.8128162562 0.10564497525569665
2408286.1657233145 0.10564427661496066
2415931.5186303724 0.10564357576207593
2423576.8715374307 0.10564287269713066
2431222.224444489 0.10564216742021337
2438867.5773515468 0.10564145993141288
2446512.9302586052 0.10564075023081823
2454158.283165663 0.10564003831851874
2461803.6360727213 0.10563932419460409
2469448.9889797796 0.10563860785916415
2477094.3418868375 0.10563788931228907
2484739.6947938958 0.10563716855406929
2492385.0477009537 0.10563644558459562
2500030.400608012 0.10563572040395901
2507675.7535150703 0.1056349930122507
2515321.1064221282 0.10563426340956229
2522966.4593291865 0.10563353159598561
2530611.8122362448 0.10563279757161279
2538257.1651433026 0.10563206133653616
2545902.518050361 0.10563132289084841
2553547.8709574188 0.10563058223464253
2561193.2238644771 0.10562983936801162
2568838.5767715354 0.10562909429104927
2576483.9296785933 0.10562834700384921
2584129.2825856516 0.10562759750650547
2591774.6354927099 0.1056268457991124
2599419.9883997678 0.10562609188176456
2607065.3413068261 0.10562533575455682
2614710.694213884 0.10562457741758439
2622356.0471209423 0.10562381687094263
2630001.4000280006 0.10562305411472724
2637646.7529350584 0.10562228914903421
2645292.1058421168 0.1056215219739598
2652937.4587491751 0.10562075258960053
2660582.8116562329 0.1056199809960532
2668228.1645632912 0.10561920719341486
2675873.5174703491 0.10561843118178292
2683518.8703774074 0.10561765296125497
2691164.2232844657 0.10561687253192895
2698809.5761915236 0.10561608989390299
2706454.9290985819 0.10561530504727558
2714100.2820056397 0.10561451799214547
2721745.6349126981 0.10561372872861163
2729390.9878197564 0.10561293725677337
2737036.3407268142 0.10561214357673024
2744681.6936338725 0.10561134768858207
2752327.0465409309 0.10561054959242897
2759972.3994479887 0.10560974928837134
2767617.752355047 0.10560894677650982
2775263.1052621049 0.10560814205694538
2782908.4581691632 0.10560733512977917
2790553.8110762215 0.10560652599511276
2798199.1639832794 0.10560571465304784
2805844.5168903377 0.1056049011036865
2813489.869797396 0.10560408534713103
2821135.2227044539 0.10560326738348402
2828780.5756115122 0.10560244721284832
2836425.92851857 0.10560162483532709
2844071.2814256283 0.10560080025102375
2851716.6343326867 0.10559997346004196
2859361.9872397445 0.10559914446248571
2867007.3401468028 0.10559831325845921
2874652.6930538611 0.105597479848067
2882298.045960919 0.10559664423141386
2889943.3988679773 0.10559580640860486
2897588.7517750352 0.10559496637974533
2905234.1046820935 0.10559412414494089
2912879.4575891518 0.10559327970429742
2920524.8104962097 0.10559243305792107
2928170.163403268 0.10559158420591831
2935815.5163103258 0.10559073314839584
2943460.8692173841 0.10558987988546065
2951106.2221244425 0.10558902441721997
2958751.5750315003 0.10558816674378139
2966396.9279385586 0.10558730686525269
2974042.2808456169 0.10558644478174195
2981687.6337526748 0.10558558049335753
2989332.9866597331 0.10558471400020809
2996978.339566791 0.10558384530240254
3004623.6924738493 0.10558297440005004
3012269.0453809076 0.10558210129326004
3019914.3982879655 0.10558122598214227
3027559.7511950238 0.10558034846680678
3035205.1041020821 0.10557946874736379
3042850.4570091399 0.10557858682392395
3050495.8099161983 0.10557770269659797
3058141.1628232561 0.10557681636549703
3065786.5157303144 0.10557592783073251
3073431.8686373727 0.10557503709241602
3081077.2215444306 0.10557414415065949
3088722.5744514889 0.10557324900557515
3096367.9273585472 0.10557235165727544
3104013.2802656051 0.10557145210587315
3111658.6331726634 0.10557055035148127
3119303.9860797212 0.10556964639421308
3126949.3389867796 0.10556874023418221
3134594.6918938379 0.10556783187150245
3142240.0448008957 0.10556692130628792
3149885.397707954 0.10556600853865304
3157530.7506150124 0.10556509356871245
3165176.1035220702 0.10556417639658108
3172821.4564291285 0.10556325702237415
3180466.8093361864 0.10556233544620718
3188112.1622432447 0.1055614116681959
3195757.515150303 0.1055604856884563
3203402.8680573609 0.10555955750710476
3211048.2209644192 0.10555862712425783
3218693.573871477 0.10555769454003236
3226338.9267785354 0.10555675975454544
3233984.2796855937 0.10555582276791453
3241629.6325926515 0.10555488358025727
3249274.9854997098 0.10555394219169162
3256920.3384067682 0.10555299860233579
3264565.691313826 0.10555205281230827
3272211.0442208843 0.10555110482172783
3279856.3971279422 0.10555015463071354
3287501.7500350005 0.10554920223938463
3295147.1029420588 0.10554824764786078
3302792.4558491167 0.10554729085626176
3310437.808756175 0.10554633186470776
3318083.1616632333 0.10554537067331914
3325728.5145702912 0.10554440728221666
3333373.8674773495 0.10554344169152118
3341019.2203844073 0.10554247390135395
3348664.5732914656 0.10554150391183648
3356309.926198524 0.10554053172309052
3363955.2791055818 0.10553955733523813
3371600.6320126401 0.10553858074840158
3379245.9849196984 0.10553760196270354
3386891.3378267563 0.10553662097826676
3394536.6907338146 0.10553563779521447
3402182.0436408725 0.10553465241366999
3409827.3965479308 0.10553366483375706
3417472.7494549891 0.1055326750555996
3425118.1023620469 0.10553168307932183
3432763.4552691053 0.10553068890504823
3440408.8081761631 0.10552969253290362
3448054.1610832214 0.10552869396301295
3455699.5139902798 0.10552769319550162
3463344.8668973376 0.1055266902304952
3470990.2198043959 0.10552568506811946
3478635.5727114542 0.10552467770850062
3486280.9256185121 0.10552366815176502
3493926.2785255704 0.10552265639803934
3501571.6314326283 0.10552164244745056
3509216.9843396866 0.10552062630012586
3516862.3372467449 0.10551960795619275
3524507.6901538027 0.10551858741577894
3532153.0430608611 0.10551756467901251
3539798.3959679194 0.10551653974602176
3547443.7488749772 0.10551551261693524
3555089.1017820355 0.10551448329188182
3562734.4546890934 0.10551345177099057
3570379.8075961517 0.10551241805439095
3578025.16050321 0.10551138214221256
3585670.5134102679 0.10551034403458535
3593315.8663173262 0.10550930373163954
3600961.2192243845 0.1055082612335056
3608606.5721314424 0.10550721654031424
3616251.9250385007 0.10550616965219653
3623897.2779455585 0.10550512056928371
3631542.6308526169 0.10550406929170737
3639187.9837596752 0.10550301581959937
3646833.336666733 0.10550196015309178
3654478.6895737913 0.10550090229231696
3662124.0424808497 0.10549984223740756
3669769.3953879075 0.10549877998849652
3677414.7482949658 0.10549771554571702
3685060.1012020237 0.10549664890920249
3692705.454109082 0.10549558007908669
3700350.8070161403 0.10549450905550366
3707996.1599231982 0.10549343583858757
3715641.5128302565 0.10549236042847303
3723286.8657373143 0.10549128282529484
3730932.2186443727 0.10549020302918811
3738577.571551431 0.10548912104028814
3746222.9244584888 0.10548803685873059
3753868.2773655471 0.10548695048465137
3761513.6302726055 0.10548586191818658
3769158.9831796633 0.10548477115947276
3776804.3360867216 0.10548367820864654
3784449.6889937795 0.10548258306584492
3792095.0419008378 0.10548148573120517
3799740.3948078961 0.10548038620486476
3807385.747714954 0.10547928448696149
3815031.1006220123 0.10547818057763346
3822676.4535290706 0.105477074477019
3830321.8064361284 0.10547596618525665
3837967.1593431868 0.10547485570248533
3845612.5122502446 0.10547374302884419
3853257.8651573029 0.10547262816447259
3860903.2180643613 0.10547151110951025
3868548.5709714191 0.10547039186409711
3876193.9238784774 0.1054692704283734
3883839.2767855357 0.10546814680247957
3891484.6296925936 0.10546702098655646
3899129.9825996519 0.10546589298074499
3906775.3355067098 0.10546476278518657
3914420.6884137681 0.10546363040002271
3922066.0413208264 0.10546249582539527
3929711.3942278842 0.10546135906144632
3937356.7471349426 0.10546022010831832
3945002.1000420004 0.10545907896615384
3952647.4529490587 0.10545793563509581
3960292.805856117 0.10545679011528745
3967938.1587631749 0.10545564240687219
3975583.5116702332 0.10545449250999377
3983228.8645772915 0.10545334042479619
3990874.2174843494 0.10545218615142368
3998519.5703914077 0.10545102969002083
4006164.9232984656 0.10544987104073239
4013810.2762055239 0.10544871020370349
4021455.6291125822 0.10544754717907938
4029100.98201964 0.10544638196700576
4036746.3349266984 0.1054452145676285
4044391.6878337567 0.10544404498109369
4052037.0407408145 0.10544287320754779
4059682.3936478728 0.10544169924713746
4067327.7465549307 0.10544052310000974
4074973.099461989 0.10543934476631174
4082618.4523690473 0.10543816424619101
4090263.8052761052 0.10543698153979533
4097909.1581831635 0.10543579664727268
4105554.5110902218 0.10543460956877136
4113199.8639972797 0.10543342030443999
4120845.216904338 0.10543222885442737
4128490.5698113958 0.1054310352188826
4136135.9227184542 0.10542983939795508
4143781.2756255125 0.10542864139179443
4151426.6285325703 0.10542744120055056
4159071.9814396286 0.10542623882437363
4166717.3343466865 0.10542503426341415
4174362.6872537448 0.10542382751782278
4182008.0401608031 0.1054226185877505
4189653.393067861 0.10542140747334858
4197298.7459749188 0.10542019417476851
4204944.0988819776 0.10541897869216216
4212589.4517890355 0.10541776102568147
4220234.8046960933 0.10541654117547883
4227880.1576031521 0.10541531914170685
4235525.5105102099 0.10541409492451832
4243170.8634172678 0.10541286852406639
4250816.2163243266 0.10541163994050451
4258461.5692313844 0.10541040917398625
4266106.9221384423 0.10540917622466561
4273752.2750455011 0.10540794109269677
4281397.6279525589 0.10540670377823416
4289042.9808596168 0.10540546428143258
4296688.3337666756 0.10540422260244697
4304333.6866737334 0.10540297874143258
4311979.0395807913 0.105401732698545
4319624.3924878491 0.10540048447394
4327269.7453949079 0.10539923406777368
4334915.0983019657 0.10539798148020234
4342560.4512090236 0.10539672671138257
4350205.8041160824 0.10539546976147129
4357851.1570231402 0.1053942106306256
4365496.5099301981 0.10539294931900293
4373141.8628372569 0.10539168582676092
4380787.2157443147 0.10539042015405753
4388432.5686513726 0.10538915230105093
4396077.9215584313 0.10538788226789964
4403723.2744654892 0.10538661005476238
4411368.6273725471 0.10538533566179817
4419013.9802796049 0.10538405908916622
4426659.3331866637 0.10538278033702612
4434304.6860937215 0.10538149940553765
4441950.0390007794 0.10538021629486093
4449595.3919078382 0.10537893100515625
4457240.744814896 0.10537764353658423
4464886.0977219539 0.10537635388930572
4472531.4506290127 0.10537506206348189
4480176.8035360705 0.10537376805927411
4487822.1564431284 0.10537247187684406
4495467.5093501871 0.10537117351635371
4503112.862257245 0.10536987297796524
4510758.2151643028 0.10536857026184106
4518403.5680713616 0.105367265368144
4526048.9209784195 0.10536595829703697
4533694.2738854773 0.10536464904868328
4541339.6267925352 0.1053633376232465
4548984.979699594 0.10536202402089037
4556630.3326066518 0.10536070824177893
4564275.6855137097 0.10535939028607656
4571921.0384207685 0.10535807015394785
4579566.3913278263 0.10535674784555764
4587211.7442348842 0.10535542336107108
4594857.0971419429 0.10535409670065354
4602502.4500490008 0.10535276786447063
4610147.8029560586 0.10535143685268838
4617793.1558631174 0.10535010366547289
4625438.5087701753 0.10534876830299068
4633083.8616772331 0.10534743076540838
4640729.2145842919 0.10534609105289305
4648374.5674913498 0.10534474916561189
4656019.9203984076 0.10534340510373244
4663665.2733054655 0.10534205886742246
4671310.6262125243 0.10534071045685001
4678955.9791195821 0.10533935987218337
4686601.33202664 0.10533800711359115
4694246.6849336987 0.10533665218124216
4701892.0378407566 0.10533529507530551
4709537.3907478144 0.10533393579595057
4717182.7436548732 0.10533257434334696
4724828.0965619311 0.10533121071766456
4732473.4494689889 0.10532984491907361
4740118.8023760477 0.10532847694774444
4747764.1552831056 0.10532710680384778
4755409.5081901634 0.10532573448755458
4763054.8610972213 0.10532435999903608
4770700.21400428 0.10532298333846375
4778345.5669113379 0.10532160450600933
4785990.9198183957 0.10532022350184481
4793636.2727254545 0.1053188403261425
4801281.6256325124 0.1053174549790749
4808926.9785395702 0.10531606746081487
4816572.331446629 0.10531467777153544
4824217.6843536869 0.10531328591140993
4831863.0372607447 0.10531189188061199
4839508.3901678035 0.10531049567931543
4847153.7430748614 0.10530909730769436
4854799.0959819192 0.10530769676592319
4862444.448888978 0.10530629405417657
4870089.8017960358 0.10530488917262942
4877735.1547030937 0.10530348212145696
4885380.5076101515 0.10530207290083453
4893025.8605172103 0.10530066151093787
4900671.2134242682 0.105299247951943
4908316.566331326 0.1052978322240261
4915961.9192383848 0.10529641432736367
4923607.2721454427 0.1052949942621325
4931252.6250525005 0.10529357202850956
4938897.9779595593 0.10529214762667215
4946543.3308666172 0.10529072105679783
4954188.683773675 0.10528929231906443
4961834.0366807338 0.10528786141364999
4969479.3895877916 0.1052864283407328
4977124.7424948495 0.10528499310049155
4984770.0954019073 0.10528355569310507
4992415.4483089661 0.10528211611875248
5000060.801216024 0.10528067437761314
5007706.1541230818 0.10527923046986672
5015351.5070301406 0.10527778439569313
5022996.8599371985 0.10527633615527257
5030642.2128442563 0.10527488574878541
5038287.5657513151 0.10527343317641244
5045932.9186583729 0.10527197843833454
5053578.2715654308 0.10527052153473299
5061223.6244724896 0.10526906246578924
5068868.9773795474 0.10526760123168502
5076514.3302866053 0.10526613783260239
5084159.6831936641 0.10526467226872359
5091805.0361007219 0.10526320454023116
5099450.3890077798 0.1052617346473079
5107095.7419148376 0.10526026259013688
5114741.0948218964 0.1052587883689014
5122386.4477289543 0.10525731198378503
5130031.8006360121 0.10525583343497168
5137677.1535430709 0.10525435272264537
5145322.5064501287 0.10525286984699049
5152967.8593571866 0.1052513848081917
5160613.2122642454 0.10524989760643386
5168258.5651713032 0.10524840824190217
5175903.9180783611 0.10524691671478194
5183549.2709854199 0.10524542302525894
5191194.6238924777 0.10524392717351906
5198839.9767995356 0.1052424291597485
5206485.3297065934 0.10524092898413372
5214130.6826136522 0.10523942664686146
5221776.0355207101 0.10523792214811868
5229421.3884277679 0.10523641548809259
5237066.7413348267 0.10523490666697075
5244712.0942418845 0.10523339568494088
5252357.4471489424 0.10523188254219101
5260002.8000560012 0.10523036723890943
5267648.152963059 0.10522884977528468
5275293.5058701169 0.10522733015150557
5282938.8587771757 0.10522580836776117
5290584.2116842335 0.10522428442424077
5298229.5645912914 0.10522275832113401
5305874.9174983501 0.1052212300586307
5313520.270405408 0.10521969963692096
5321165.6233124658 0.10521816705619515
5328810.9762195237 0.10521663231664388
5336456.3291265825 0.10521509541845805
5344101.6820336403 0.10521355636182889
5351747.0349406982 0.10521201514694765
5359392.387847757 0.10521047177400614
5367037.7407548148 0.10520892624319621
5374683.0936618727 0.10520737855471006
5382328.4465689315 0.10520582870874011
5389973.7994759893 0.10520427670547913
5397619.1523830472 0.10520272254512007
5405264.5052901059 0.10520116622785611
5412909.8581971638 0.10519960775388079
5420555.2111042216 0.1051980471233878
5428200.5640112795 0.10519648433657121
5435845.9169183383 0.10519491939362524
5443491.2698253961 0.10519335229474441
5451136.622732454 0.10519178304012351
5458781.9756395128 0.10519021162995763
5466427.3285465706 0.10518863806444199
5474072.6814536285 0.10518706234377219
5481718.0343606872 0.10518548446814406
5489363.3872677451 0.10518390443775366
5497008.740174803 0.10518232225279732
5504654.0930818617 0.10518073791347166
5512299.4459889196 0.10517915141997351
5519944.7988959774 0.1051775627725
5527590.1518030362 0.10517597197124849
5535235.5047100941 0.10517437901641663
5542880.8576171519 0.1051727839082023
5550526.2105242098 0.10517118664680362
5558171.5634312686 0.10516958723241901
5565816.9163383264 0.10516798566524717
5573462.2692453843 0.10516638194548697
5581107.622152443 0.10516477607333763
5588752.9750595009 0.10516316804899857
5596398.3279665587 0.10516155787266949
5604043.6808736175 0.10515994554455034
5611689.0337806754 0.10515833106484133
5619334.3866877332 0.10515671443374294
5626979.739594792 0.10515509565145591
5634625.0925018499 0.10515347471818121
5642270.4454089077 0.10515185163412008
5649915.7983159656 0.10515022639947399
5657561.1512230244 0.1051485990144448
5665206.5041300822 0.10514696947923444
5672851.8570371401 0.10514533779404522
5680497.2099441988 0.10514370395907965
5688142.5628512567 0.10514206797454051
5695787.9157583145 0.10514042984063089
5703433.2686653733 0.10513878955755407
5711078.6215724312 0.1051371471255136
5718723.974479489 0.10513550254471331
5726369.3273865478 0.10513385581535728
5734014.6802936057 0.10513220693764984
5741660.0332006635 0.10513055591179556
5749305.3861077223 0.1051289027379993
5756950.7390147801 0.10512724741646619
5764596.091921838 0.10512558994740152
5772241.4448288959 0.10512393033101099
5779886.7977359546 0.1051222685675004
5787532.1506430125 0.1051206046570759
5795177.5035500703 0.10511893859994392
5802822.8564571291 0.10511727039631104
5810468.209364187 0.10511560004638419
5818113.5622712448 0.10511392755037051
5825758.9151783036 0.10511225290847745
5833404.2680853615 0.10511057612091261
5841049.6209924193 0.10510889718788395
5848694.9738994781 0.10510721610959968
5856340.3268065359 0.10510553288626817
5863985.6797135938 0.10510384751809819
5871631.0326206516 0.10510216000529862
5879276.3855277104 0.10510047034807868
5886921.7384347683 0.10509877854664783
5894567.0913418261 0.10509708460121578
5902212.4442488849 0.10509538851199253
5909857.7971559428 0.10509369027918825
5917503.1500630006 0.10509198990301349
5925148.5029700594 0.10509028738367888
5932793.8558771173 0.10508858272139554
5940439.2087841751 0.10508687591637465
5948084.5616912339 0.10508516696882766
5955729.9145982917 0.10508345587896646
5963375.2675053496 0.10508174264700293
5971020.6204124084 0.1050800272731494
5978665.9733194662 0.10507830975761842
5986311.3262265241 0.10507659010062269
5993956.6791335819 0.10507486830237528
6001602.0320406407 0.10507314436308945
6009247.3849476986 0.10507141828297882
6016892.7378547564 0.10506969006225712
6024538.0907618152 0.1050679597011384
6032183.443668873 0.10506622719983698
6039828.7965759309 0.10506449255856742
6047474.1494829897 0.10506275577754454
6055119.5023900475 0.10506101685698338
6062764.8552971054 0.10505927579709927
6070410.2082041642 0.10505753259810782
6078055.561111222 0.10505578726022483
6085700.9140182799 0.10505403978366637
6093346.2669253387 0.1050522901686488
6100991.6198323965 0.10505053841538871
6108636.9727394544 0.10504878452410293
6116282.3256465122 0.10504702849500859
6123927.678553571 0.10504527032832299
6131573.0314606288 0.10504351002426381
6139218.3843676867 0.10504174758304885
6146863.7372747455 0.10503998300489625
6154509.0901818033 0.10503821629002438
6162154.4430888612 0.1050364474386518
6169799.79599592 0.1050346764509975
6177445.1489029778 0.10503290332728049
6185090.5018100357 0.10503112806772026
6192735.8547170945 0.10502935067253637
6200381.2076241523 0.10502757114194868
6208026.5605312102 0.1050257894761774
6215671.913438268 0.10502400567544284
6223317.2663453268 0.10502221973996577
6230962.6192523846 0.10502043166996697
6238607.9721594425 0.10501864146566764
6246253.3250665013 0.10501684912728919
6253898.6779735591 0.10501505465505326
6261544.030880617 0.10501325804918175
6269189.3837876758 0.10501145930989682
6276834.7366947336 0.10500965843742088
6284480.0896017915 0.10500785543197662
6292125.4425088502 0.10500605029378697
6299770.7954159081 0.10500424302307503
6307416.1483229659 0.10500243362006428
6315061.5012300247 0.10500062208497837
6322706.8541370826 0.10499880841804123
6330352.2070441404 0.10499699261947705
6337997.5599511983 0.10499517468951022
6345642.9128582571 0.10499335462836545
6353288.2657653149 0.10499153243626769
6360933.6186723728 0.10498970811344206
6368578.9715794316 0.10498788166011408
6376224.3244864894 0.10217173498713135
6383869.6773935473 0.098339748969329982
6391515.030300606 0.094651482903454945
6399160.3832076639 0.091101546523340737
6406805.7361147217 0.087684751726604726
6414451.0890217805 0.084396104992426293
6422096.4419288384 0.081230800083699747
6429741.7948358962 0.078184211022891886
6437387.1477429541 0.075251885331346288
6445032.5006500129 0.07242953752214773
6452677.8535570707 0.06971304283704087
6460323.2064641286 0.067098431218244589
6467968.5593711874 0.064581881506358657
6475613.9122782452 0.06215971585587967
6483259.2651853031 0.059828394360162317
6490904.6180923618 0.05758450987797601
6498549.9709994197 0.055424783054093249
6506195.3239064775 0.053346057526630006
6513840.6768135363 0.051345295314138999
6521486.0297205942 0.049419572375711415
6529131.382627652 0.047566074337596465
6536776.7355347108 0.045782092380097658
6544422.0884417687 0.044065019278732381
6552067.4413488265 0.042412345593867203
6559712.7942558844 0.0408216560032644
6567358.1471629431 0.039290625772176249
6575003.500070001 0.03781701735583088
6582648.8529770589 0.03639867712934116
6590294.2058841176 0.035033532240261164
6597939.5587911755 0.033719587579188477
6605584.9116982333 0.032454922863983701
6613230.2646052921 0.031237689833348698
6620875.61751235 0.030066109545660663
6628520.9704194078 0.028938469779113029
6636166.3233264666 0.027853122529366232
6643811.6762335245 0.026808481601049972
6651457.0291405823 0.025803020289595805
6659102.3820476402 0.024835269150014695
6666747.7349546989 0.02390381384935656
6674393.0878617568 0.023007293099714814
6682038.4407688146 0.022144396668753064
6689683.7936758734 0.021313863464848808
6697329.1465829313 0.02051447969405432
6704974.4994899891 0.019745077086180552
6712619.8523970479 0.019004531187413222
6720265.2053041058 0.01829175971696486
6727910.5582111636 0.017605720985360469
6735555.9111182224 0.016945412372046637
6743201.2640252803 0.016309868860098446
6750846.6169323381 0.015698161625882025
6758491.9698393969 0.015109396681612954
6766137.3227464547 0.014542713568825959
6773782.6756535126 0.013997284100845893
6781428.0285605704 0.013472311152423411
6789073.3814676292 0.012967027494765405
6796718.7343746871 0.012480694674258391
6804364.0872817449 0.012012601933245137
6812009.4401888037 0.011562065171278509
6819654.7930958616 0.011128425945333802
6827300.1460029194 0.01071105050751797
6834945.4989099782 0.010309328878870401
6842590.851817036 0.0099226739579010865
6850236.2047240939 0.0095505206625629228
6857881.5576311527 0.0091923251044050986
6865526.9105382105 0.008847563793700124
6873172.2634452684 0.0085157328743824222
6880817.6163523262 0.0081963473876812826
6888462.969259385 0.0078889405633712391
6896108.3221664429 0.0075930631376045915
6903753.6750735007 0.007308282696328456
6911399.0279805595 0.0070341830433275441
6919044.3808876174 0.0067703635919686977
6926689.7337946752 0.0065164387797579312
6934335.086701734 0.0062720375048550521
6941980.4396087918 0.0060368025837219475
6949625.7925158497 0.0058103902291117074
6957271.1454229085 0.0055924695476362238
6964916.4983299663 0.0053827220561776402
6972561.8512370242 0.0051808412164367681
6980207.204144083 0.0049865319869386356
6987852.5570511408 0.0047995103918401982
6995497.9099581987 0.0046195031059098916
7003143.2628652565 0.0044462470550728737
7010788.6157723153 0.0042794890319378274
7018433.9686793732 0.0041189853257436885
7026079.321586431 0.0039645013661851391
7033724.6744934898 0.0038158113805967461
7041370.0274005476 0.0036726980639945001
7049015.3803076055 0.0035349522614924129
7056660.7332146643 0.0034023726626303393
7064306.0861217221 0.0032747655071661483
7071951.43902878 0.0031519443019020952
7079596.7919358388 0.0030337295481318843
7087242.1448428966 0.0029199484793099011
7094887.4977499545 0.0028104348085591286
7102532.8506570123 0.0027050284856490084
7110178.2035640711 0.0026035754630878444
7117823.5564711289 0.0025059274709880734
7125468.9093781868 0.002411941800375158
7133114.2622852456 0.0023214810946236746
7140759.6151923034 0.0022344131487156546
7148404.9680993613 0.0021506107160277062
7156050.3210064201 0.0020699513223647638
7163695.6739134779 0.001992317086968543
7171341.0268205358 0.0019175945502390675
7178986.3797275946 0.0018456745079176295
7186631.7326346524 0.0017764518514887888
7194277.0855417103 0.0017098254145680519
7201922.438448769 0.0016456978250509299
7209567.7913558269 0.0015839753628071837
7217213.1442628847 0.00152456782271223
7224858.4971699426 0.0014673883828156781
7232503.8500770014 0.0014123534774542021
7240149.2029840592 0.0013593826751234078
7247794.5558911171 0.0013083985609300803
7255439.9087981759 0.0012593266234531689
7263085.2617052337 0.0012120951458480824
7270730.6146122916 0.0011666351010351029
7278375.9675193503 0.001122880050818853
7286021.3204264082 0.0010807660487913073
7293666.6733334661 0.001040231546876425
7301312.0262405248 0.001001217305379901
7308957.3791475827 0.0009636663064125266
7316602.7320546405 0.00092752367056060344
7324248.0849616993 0.00089273657668169381
7331893.4378687572 0.00085925418470846385
7339538.790775815 0.00082702756134775803
7347184.1436828729 0.00079600960856639311
7354829.4965899317 0.00076615499475909542
7362474.8494969895 0.00073742008849803108
7370120.2024040474 0.00070976289476704275
7377765.5553111061 0.00068314299358748071
7385410.908218164 0.00065752148094588858
7393056.2611252218 0.00063286091193718924
7400701.6140322806 0.00060912524604033336
7408346.9669393385 0.00058627979444640318
7415992.3198463963 0.00056429116936216597
7423637.6727534551 0.00054312723521504397
7431283.025660513 0.00052275706168815523
7438928.3785675708 0.00050315087851676992
7446573.7314746287 0.00048428003198016555
7454219.0843816875 0.00046611694302525704
7461864.4372887453 0.00044863506696082433
7469509.7901958032 0.00043180885466340379
7477155.1431028619 0.00041561371523818433
7484800.4960099198 0.00040002598008031712
7492445.8489169776 0.00038502286828410298
7500091.2018240364 0.00037058245334953765
7507736.5547310943 0.00035668363113753535
7515381.9076381521 0.00034330608902699171
7523027.2605452109 0.00033043027622863468
7530672.6134522688 0.00031803737521226378
7538317.9663593266 0.00030610927420560927
7545963.3192663854 0.00029462854072464124
7553608.6721734433 0.00028357839609663584
7561254.0250805011 0.00027294269093874933
7568899.377987559 0.00026270588155629049
7576544.7308946177 0.00025285300722617548
7584190.0838016756 0.00024336966833238291
7591835.4367087334 0.0002342420053214327
7599480.7896157922 0.00022545667844715931
7607126.1425228501 0.00021700084827516248
7614771.4954299079 0.00020886215691843656
7622416.8483369667 0.00020102870997677311
7630062.2012440246 0.00019348905915353258
7637707.5541510824 0.00018623218552437024
7645352.9070581412 0.00017924748343348435
7652998.259965199 0.0001725247449938395
7660643.6128722569 0.00016605414516870776
7668288.9657793147 0.00015982622741273931
7675934.3186863735 0.0001538318898515658
7683579.6715934314 0.00014806237197974534
7691225.0245004892 0.00014250924185760003
7698870.377407548 0.00013716438378824611
7706515.7303146059 0.00013201998645680105
7714161.0832216637 0.00012706853151442875
7721806.4361287225 0.00012230278259054851
7729451.7890357804 0.00011771577471714584
7737097.1419428382 0.00011330080414972255
7744742.494849897 0.0001090514185700206
7752387.8477569548 0.0001049614076561964
7760033.2006640127 0.00010102479400665865
7767678.5535710715 9.723582440431627e-05
7775323.9064781293 9.3588961408462687e-05
7782969.2593851872 9.007887526200594e-05
7790614.612292245 8.6700436102225058e-05
7798259.9651993038 8.3448706463662125e-05
7805905.3181063617 8.0318934062198667e-05
7813550.6710134195 7.7306544849763147e-05
7821196.0239204783 7.4407136329528349e-05
7828841.3768275362 7.1616471121823858e-05
7836486.729734594 6.8930470771358358e-05
7844132.0826416528 6.6345209786707201e-05
7851777.4355487106 6.3856909903351199e-05
7859422.7884557685 6.146193456187869e-05
7867068.1413628273 5.9156783593288096e-05
7874713.4942698851 5.6938088103619333e-05
7882358.847176943 5.4802605550436768e-05
7890004.2000840008 5.2747215003972906e-05
7897649.5529910596 5.0768912586003123e-05
7905294.9058981175 4.8864807079788057e-05
7912940.2588051753 4.7032115704664667e-05
7920585.6117122341 4.5268160049114614e-05
7928230.9646192919 4.3570362156364201e-05
7935876.3175263498 4.193624075679359e-05
7943521.6704334086 4.0363407641652272e-05
7951167.0233404664 3.8849564172779898e-05
7958812.3762475243 3.7392497923229378e-05
7966457.7291545831 3.5990079443886256e-05
7974103.0820616409 3.4640259151357221e-05
7981748.4349686988 3.3341064332577464e-05
7989393.7878757576 3.2090596261763569e-05
7997039.1407828154 3.0887027425495127e-05
8004684.4936898733 2.9728598851870051e-05
8012329.8465969311 2.8613617539831624e-05
8019975.1995039899 2.7540453984909379e-05
8027620.5524110477 2.6507539797758069e-05
8035265.9053181056 2.5513365412013149e-05
8042911.2582251644 2.455647787811528e-05
8050556.6111322222 2.3635478739877686e-05
8058201.9640392801 2.2749021990693007e-05
8065847.3169463389 2.1895812106393983e-05
8073492.6698533967 2.10746021518926e-05
8081138.0227604546 2.0284191958829435e-05
8088783.3756675133 1.9523426371571519e-05
8096428.7285745712 1.8791193558995146e-05
8104074.0814816291 1.8086423389584405e-05
8111719.4343886869 1.7408085867473712e-05
8119364.7872957457 1.6755189627146049e-05
8127010.1402028035 1.612678048458894e-05
8134655.4931098614 1.5521940042788853e-05
8142300.8460169202 1.4939784349527734e-05
8149946.198923978 1.4379462605519303e-05
8157591.5518310359 1.3840155920996534e-05
8165236.9047380947 1.3321076118934493e-05
8172882.2576451525 1.2821464583158431e-05
8180527.6105522104 1.2340591149653699e-05
8188172.9634592691 1.1877753039457786e-05
8195818.316366327 1.1432273831574769e-05
8203463.6692733848 1.1003502474410405e-05
8211109.0221804436 1.059081233428407e-05
8218754.3750875015 1.0193600279626828e-05
8226399.7279945593 9.8112857995261737e-06
8234045.0809016172 9.4433101553309184e-06
8241690.433808676 9.0891355640748199e-06
8249335.7867157338 8.7482444125266606e-06
8256981.1396227917 8.4201385007171705e-06
8264626.4925298505 8.1043383138380095e-06
8272271.8454369083 7.8003823214486289e-06
8279917.1983439662 7.5078263029660058e-06
8287562.5512510249 7.2262426984527442e-06
8295207.9041580828 6.9552199837538391e-06
8302853.2570651406 6.6943620690689715e-06
8310498.6099721994 6.4432877200818862e-06
8318143.9628792573 6.2016300008003721e-06
8325789.3157863151 5.9690357372925917e-06
8333434.668693373 5.7451650015363354e-06
8341080.0216004318 5.5296906146266449e-06
8348725.3745074896 5.3222976686158322e-06
8356370.7274145475 5.1226830662869107e-06
8364016.0803216062 4.9305550781881097e-06
8371661.4332286641 4.7456329162810374e-06
8379306.786135722 4.5676463235790848e-06
8386952.1390427807 4.3963351791767304e-06
8394597.4919498377 4.2314491180924913e-06
8402242.8448568974 4.0727471653693172e-06
8409888.1977639552 3.9199973838989197e-06
8417533.5506710131 3.7729765354537977e-06
8425178.9035780709 3.6314697544328729e-06
8432824.2564851288 3.4952702338432731e-06
8440469.6093921866 3.3641789230594056e-06
8448114.9622992463 3.2380042369177575e-06
8455760.3152063042 3.1165617757222725e-06
8463405.668113362 2.9996740557507324e-06
8471051.0210204199 2.8871702498689411e-06
8478696.3739274777 2.77888593787303e-06
8486341.7268345356 2.6746628661953713e-06
8493987.0797415953 2.5743487166227312e-06
8501632.4326486532 2.477796883688839e-06
8509277.785555711 2.3848662604157482e-06
8516923.1384627689 2.2954210320911964e-06
8524568.4913698267 2.2093304777803715e-06
8532213.8442768846 2.1264687792820254e-06
8539859.1971839424 2.0467148372497563e-06
8547504.5500910021 1.9699520942097455e-06
8555149.90299806 1.8960683642163068e-06
8562795.2559051178 1.8249556688961412e-06
8570440.6088121757 1.7565100796419509e-06
8578085.9617192335 1.6906315657245448e-06
8585731.3146262914 1.6272238481016043e-06
8593376.6675333511 1.5661942587093404e-06
8601022.020440409 1.507453605031579e-06
8608667.3733474668 1.450916039748062e-06
8616312.7262545247 1.3964989352717734e-06
8623958.0791615825 1.3441227629917411e-06
8631603.4320686404 1.2937109770448573e-06
8639248.7849756982 1.2451899024469138e-06
8646894.1378827579 1.1984886274192735e-06
8654539.4907898158 1.1535388997539544e-06
8662184.8436968736 1.1102750270654485e-06
8669830.1966039315 1.0686337807837369e-06
8677475.5495109893 1.0285543037480463e-06
8685120.9024180472 9.8997802126631652e-07
8692766.2553251069 9.5284855551043069e-07
8700411.6082321648 9.1711164312210728e-07
8708056.9611392226 8.8271505590892682e-07
8715702.3140462805 8.4960852451478246e-07
8723347.6669533383 8.1774366495302961e-07
8730993.0198603962 7.8707390789506973e-07
8738638.372767454 7.5755443061096447e-07
8746283.7256745137 7.2914209146265653e-07
8753929.0785815716 7.0179536685406303e-07
8761574.4314886294 6.7547429054581283e-07
8769219.7843956873 6.5014039524608237e-07
8776865.1373027451 6.2575665639203756e-07
8784510.490209803 6.0228743803979572e-07
8792155.8431168627 5.7969844078378202e-07
8799801.1960239206 5.5795665162942794e-07
8807446.5489309784 5.3703029574585136e-07
8815091.9018380363 5.1688879002811966e-07
8822737.2547450941 4.9750269840115993e-07
8830382.607652152 4.7884368880000309e-07
8838027.9605592098 4.608844917635125e-07
8845673.3134662695 4.4359886058105139e-07
8853318.6663733274 4.2696153293389597e-07
8860964.0192803852 4.1094819397525184e-07
8868609.3721874431 3.9553544079500822e-07
8876254.7250945009 3.8070074821723968e-07
8883900.0780015588 3.664224358804789e-07
8891545.4309086185 3.5267963655266174e-07
8899190.7838156763 3.3945226563444006e-07
8906836.1367227342 3.2672099180625233e-07
8914481.489629792 3.1446720877632324e-07
8922126.8425368499 3.0267300808823966e-07
8929772.1954439078 2.9132115294839964e-07
8937417.5483509675 2.8039505303506377e-07
8945062.9012580253 2.698787402522145e-07
8952708.2541650832 2.5975684539275497e-07
8960353.607072141 2.5001457567698068e-07
8967998.9599791989 2.4063769313347276e-07
8975644.3128862567 2.3161249379082126e-07
8983289.6657933146 2.2292578764977021e-07
8990935.0187003743 2.1456487940651642e-07
8998580.3716074321 2.0651754989899085e-07
9006225.72451449 1.9877203824899079e-07
9013871.0774215478 1.9131702467409232e-07
9021516.4303286057 1.8414161394419883e-07
9029161.7832356635 1.7723531945856244e-07
9036807.1361427233 1.7058804791999573e-07
9044452.4890497811 1.6419008458389499e-07
9052097.841956839 1.5803207906048542e-07
9059743.1948638968 1.5210503164957335e-07
9067388.5477709547 1.4640028018781343e-07
9075033.9006780125 1.4090948738927109e-07
9082679.2535850704 1.3562462866078578e-07
9090324.6064921301 1.3053798037431768e-07
9097969.9593991879 1.2564210857915409e-07
9105615.3123062458 1.2092985813745389e-07
9113260.6652133036 1.1639434226727902e-07
9120906.0181203615 1.1202893247781458e-07
9128551.3710274193 1.0782724888206986e-07
9136196.7239344791 1.0378315087290692e-07
9143842.0768415369 9.989072814877064e-08
9151487.4297485948 9.6144292075992717e-08
9159132.7826556526 9.2538367375066294e-08
9166778.1355627105 8.9067684118722539e-08
9174423.4884697683 8.5727170030125804e-08
9182068.8413768262 8.2511943069924869e-08
9189714.1942838859 7.9417304301331223e-08
9197359.5471909437 7.6438731022796797e-08
9205004.9000980016 7.3571870158246186e-08
9212650.2530050594 7.0812531895218752e-08
9220295.6059121173 6.8156683561608938e-08
9227940.9588191751 6.5600443732064236e-08
9235586.3117262349 6.3140076555422287e-08
9243231.6646332927 6.0771986294903903e-08
9250877.0175403506 5.849271207307129e-08
9258522.3704474084 5.6298922813884037e-08
9266167.7233544663 5.4187412374453321e-08
9273813.0762615241 5.2155094859380295e-08
9281458.4291685838 5.0199000110832949e-08
9289103.7820756417 4.8316269367770354e-08
9296749.1349826995 4.6504151087964851e-08
9304394.4878897574 4.4759996926725993e-08
9312039.8407968152 4.3081257866440358e-08
9319685.1937038731 4.1465480491275975e-08
9327330.5466109309 3.9910303401604412e-08
9334975.8995179906 3.8413453762900927e-08
9342621.2524250485 3.6972743984081644e-08
9350266.6053321064 3.5586068520416494e-08
9357911.9582391642 3.42514007963543e-08
9365557.3111462221 3.296679024375609e-08
9373202.6640532799 3.173035945121079e-08
9380848.0169603396 3.0540301420267203e-08
9388493.3698673975 2.9394876924572328e-08
9396138.7227744553 2.8292411968054386e-08
9403784.0756815132 2.7231295338439378e-08
9411429.428588571 2.6209976252523256e-08
9419074.7814956289 2.5226962089758744e-08
9426720.1344026867 2.4280816210844793e-08
9434365.4873097464 2.3370155858130806e-08
9442010.8402168043 2.2493650134767323e-08
9449656.1931238621 2.1650018059647892e-08
9457301.54603092 2.0838026695302704e-08
9464946.8989379779 2.0056489346005168e-08
9472592.2518450357 1.9304263823459699e-08
9480237.6047520954 1.8580250777534799e-08
9487882.9576591533 1.7883392089603881e-08
9495528.3105662111 1.721266932614243e-08
9503173.663473269 1.6567102250325177e-08
9510819.0163803268 1.5945747389445832e-08
9518464.3692873847 1.5347696656065937e-08
9526109.7221944425 1.4772076020878453e-08
9533755.0751015022 1.4218044235345508e-08
9541400.4280085601 1.3684791602245085e-08
9549045.7809156179 1.3171538792327232e-08
9556691.1338226758 1.2677535705353282e-08
9564336.4867297336 1.2202060373851777e-08
9571981.8396367915 1.1744417907989215e-08
9579627.1925438512 1.1303939480013902e-08
9587272.5454509091 1.0879981346789046e-08
9594917.8983579669 1.0471923908985084e-08
9602563.2512650248 1.0079170805558154e-08
9610208.6041720826 9.7011480421902391e-09
9617853.9570791405 9.3373031524173619e-09
9625499.3099861983 8.9871043902201475e-09
9633144.662893258 8.6500399528961562e-09
9640790.0158003159 8.3256172330794142e-09
9648435.3687073737 8.0133620988121554e-09
9656080.7216144316 7.7128182006186162e-09
9663726.0745214894 7.4235463045669718e-09
9671371.4274285473 7.1451236503448038e-09
9679016.780335607 6.8771433334103944e-09
9686662.1332426649 6.6192137103168554e-09
9694307.4861497227 6.370957826339063e-09
9701952.8390567806 6.1320128645684934e-09
9709598.1919638384 5.9020296156693378e-09
9717243.5448708963 5.6806719675218875e-09
9724888.897777956 5.4676164140069627e-09
9732534.2506850138 5.2625515822135488e-09
9740179.6035920717 5.0651777773785796e-09
9747824.9564991295 4.8752065448940079e-09
9755470.3094061874 4.6923602487409498e-09
9763115.6623132452 4.5163716657348322e-09
9770761.0152203031 4.346983594988363e-09
9778406.3681273628 4.1839484820218512e-09
9786051.7210344207 4.0270280569715379e-09
9793697.0739414785 3.8759929863666198e-09
9801342.4268485364 3.7306225379669251e-09
9808987.7797555942 3.5907042581708145e-09
9816633.1326626521 3.4560336615219171e-09
9824278.4855697118 3.3264139318611239e-09
9831923.8384767696 3.2016556346870895e-09
9839569.1913838275 3.0815764403043974e-09
9847214.5442908853 2.9660008573555557e-09
9854859.8971979432 2.8547599763466878e-09
9862505.250105001 2.7476912227925073e-09
9870150.6030120589 2.6446381196196747e-09
9877795.9559191186 2.5454500584811806e-09
9885441.3088261764 2.4499820796478969e-09
9893086.6617332343 2.358094660155051e-09
9900732.0146402922 2.2696535098946102e-09
9908377.36754735 2.1845293753551983e-09
9916022.7204544079 2.1025978507227585e-09
9923668.0733614676 2.0237391960660118e-09
9931313.4262685254 1.9478381623409987e-09
9938958.7791755833 1.8747838229586717e-09
9946604.1320826411 1.8044694116698499e-09
9954249.484989699 1.7367921665301853e-09
9961894.8378967568 1.6716531797173578e-09
9969540.1908038147 1.6089572529808944e-09
9977185.5437108744 1.5486127585134084e-09
9984830.8966179322 1.4905315050399359e-09
9992476.2495249901 1.434628608929532e-09
10000121.602432048 1.3808223701410051e-09
10007766.955339106 1.3290341528212692e-09
10015412.308246164 1.2791882703819343e-09
10023057.661153223 1.2312118748860791e-09
10030703.014060281 1.1850348505837259e-09
10038348.366967339 1.1405897114401457e-09
10045993.719874397 1.0978115025075331e-09
10053639.072781455 1.0566377049957249e-09
10061284.425688513 1.0170081449032473e-09
10068929.77859557 9.7886490507522536e-10
10076575.13150263 9.4215224055956344e-10
10084220.484409688 9.0681649713777041e-10
10091865.837316746 8.7280603291122939e-10
10099511.190223804 8.400711428284713e-10
10107156.543130862 8.0856398604306009e-10
10114801.896037919 7.78238515995936e-10
10122447.248944979 7.4905041312005484e-10
10130092.601852037 7.2095702006897437e-10
10137737.954759095 6.9391727937466252e-10
10145383.307666153 6.6789167344353764e-10
10153028.660573211 6.428421668029377e-10
10160674.013480268 6.1873215051367539e-10
10168319.366387328 5.9552638866738997e-10
10175964.719294386 5.7319096689058883e-10
10183610.072201444 5.5169324277998844e-10
10191255.425108502 5.3100179819685771e-10
10198900.77801556 5.1108639335055679e-10
10206546.130922617 4.9191792260417584e-10
10214191.483829675 4.7346837193771566e-10
10221836.836736735 4.5571077800662204e-10
10229482.189643793 4.3861918873584354e-10
10237127.542550851 4.2216862539181511e-10
10244772.895457909 4.0633504607695304e-10
10252418.248364966 3.9109531059330115e-10
10260063.601272024 3.7642714662398091e-10
10267708.954179084 3.6230911718300098e-10
10275354.307086142 3.4872058928590646e-10
10282999.6599932 3.3564170379540054e-10
10290645.012900257 3.2305334639795508e-10
10298290.365807315 3.1093711966894056e-10
10305935.718714373 2.9927531618545414e-10
10313581.071621431 2.880508926475729e-10
10321226.424528491 2.7724744497018933e-10
10328871.777435549 2.6684918430905051e-10
10336517.130342606 2.5684091398592497e-10
10344162.483249664 2.472080072792186e-10
10351807.836156722 2.3793638604755609e-10
10359453.18906378 2.2901250015508963e-10
10367098.54197084 2.2042330766847102e-10
10374743.894877898 2.12156255796547e-10
10382389.247784955 2.0419926254490231e-10
10390034.600692013 1.9654069905847474e-10
10397679.953599071 1.8916937262640535e-10
10405325.306506129 1.8207451032430265e-10
10412970.659413187 1.7524574327000317e-10
10420616.012320247 1.686730914698296e-10
10428261.365227304 1.6234694923320111e-10
10435906.718134362 1.5625807113425593e-10
10443552.07104142 1.5039755850000849e-10
10451197.423948478 1.4475684640525871e-10
10458842.776855536 1.3932769115526885e-10
10466488.129762596 1.3410215823790265e-10
10474133.482669653 1.29072610727631e-10
10481778.835576711 1.242316981244371e-10
10489424.188483769 1.1957234561133247e-10
10497069.541390827 1.1508774371477038e-10
10504714.894297885 1.1077133835284831e-10
10512360.247204944 1.0661682125675685e-10
10520005.600112002 1.0261812075147749e-10
10527650.95301906 9.8769392882246023e-11
10535296.305926118 9.5065012873830217e-11
10542941.658833176 9.1499566910124794e-11
10550587.011740234 8.8067844222058156e-11
10558232.364647292 8.4764829472241757e-11
10565877.717554351 8.1585695425238059e-11
10573523.070461409 7.8525795892735421e-11
10581168.423368467 7.5580658943308012e-11
10588813.776275525 7.274598036685592e-11
10596459.129182583 7.001761738415676e-11
10604104.482089641 6.7391582592346035e-11
10611749.8349967 6.4864038137473619e-11
10619395.187903758 6.243129010562063e-11
10627040.540810816 6.0089783124378063e-11
10634685.893717874 5.7836095166800271e-11
10642331.246624932 5.5666932550237713e-11
10649976.59953199 5.3579125122740623e-11
10657621.952439047 5.1569621629996507e-11
10665267.305346107 4.9635485256033661e-11
10672912.658253165 4.7773889331173833e-11
10680558.011160223 4.5982113200954273e-11
10688203.364067281 4.4257538249993476e-11
10695848.716974339 4.2597644074978821e-11
10703494.069881396 4.1000004801189909e-11
10711139.422788456 3.9462285537170598e-11
10718784.775695514 3.7982238962372014e-11
10726430.128602572 3.6557702042773573e-11
10734075.48150963 3.5186592869688688e-11
10741720.834416687 3.3866907617131363e-11
10749366.187323745 3.2596717613297401e-11
10757011.540230803 3.1374166521881514e-11
10764656.893137863 3.0197467629108539e-11
10772302.246044921 2.9064901232518282e-11
10779947.598951979 2.7974812127681083e-11
10787592.951859036 2.692560718917825e-11
10795238.304766094 2.5915753042307439e-11
10802883.657673152 2.4943773822110965e-11
10810529.010580212 2.4008249016453198e-11
10818174.36348727 2.310781138999489e-11
10825819.716394328 2.2241144986027001e-11
10833465.069301385 2.1406983203249395e-11
10841110.422208443 2.0604106944678566e-11
10848755.775115501 1.9831342835982215e-11
10856401.128022559 1.9087561510635378e-11
10864046.480929619 1.8371675959392574e-11
10871691.833836677 1.7682639941663843e-11
10879337.186743734 1.7019446456471443e-11
10886982.539650792 1.6381126270755401e-11
10894627.89255785 1.576674650287455e-11
10902273.245464908 1.5175409259234299e-11
10909918.598371968 1.4606250322047435e-11
10917563.951279026 1.4058437886312243e-11
10925209.304186083 1.3531171344158862e-11
10932854.657093141 1.3023680114790727e-11
10940500.010000199 1.2535222518308878e-11
10948145.362907257 1.2065084691773611e-11
10955790.715814317 1.1612579545919913e-11
10963436.068721374 1.1177045761002049e-11
10971081.421628432 1.0757846820298114e-11
10978726.77453549 1.0354370079864741e-11
10986372.127442548 9.9660258731799956e-12
10994017.480349606 9.5922466493674125e-12
11001662.833256664 9.2324861437412063e-12
11009308.186163723 8.8862185794600885e-12
11016953.539070781 8.5529378991241241e-12
11024598.891977839 8.2321570251897223e-12
11032244.244884897 7.9234071481239391e-12
11039889.597791955 7.6262370412565001e-12
11047534.950699013 7.3402124013283071e-12
11055180.303606072 7.0649152137731386e-12
11062825.65651313 6.7999431418048983e-12
11070471.009420188 6.5449089384166086e-12
11078116.362327246 6.2994398804334611e-12
11085761.715234304 6.0631772237912783e-12
11093407.068141362 5.8357756792452681e-12
11101052.42104842 5.6169029077423545e-12
11108697.773955479 5.4062390347198125e-12
11116343.126862537 5.2034761826203834e-12
11123988.479769595 5.0083180209402015e-12
11131633.832676653 4.8204793331527992e-12
11139279.185583711 4.6396855998754914e-12
11146924.538490769 4.4656725976693909e-12
11154569.891397828 4.2981860128863556e-12
11162215.244304886 4.1369810699991272e-12
11169860.597211944 3.981822173870546e-12
11177505.950119002 3.8324825654400327e-12
11185151.30302606 3.6887439903235089e-12
11192796.655933117 3.5503963798425042e-12
11200442.008840175 3.4172375440165065e-12
11208087.361747235 3.289072876069645e-12
11215732.714654293 3.1657150680201203e-12
11223378.067561351 3.0469838369362617e-12
11231023.420468409 2.9327056614596797e-12
11238668.773375466 2.8227135282101508e-12
11246314.126282524 2.7168466877016368e-12
11253959.479189584 2.6149504194127949e-12
11261604.832096642 2.5168758056686365e-12
11269250.1850037 2.4224795140026561e-12
11276895.537910758 2.331623587681767e-12
11284540.890817815 2.2441752440875403e-12
11292186.243724873 2.1600066806592849e-12
11299831.596631931 2.0789948881152295e-12
11307476.949538991 2.0010214706789546e-12
11315122.302446049 1.9259724730483703e-12
11322767.655353107 1.8537382138540667e-12
11330413.008260164 1.7842131253641102e-12
11338058.361167222 1.7172955992005982e-12
11345703.71407428 1.6528878378427513e-12
11353349.06698134 1.590895711699384e-12
11360994.419888398 1.5312286215420092e-12
11368639.772795456 1.47379936609729e-12
11376285.125702513 1.418524014605603e-12
11383930.478609571 1.3653217841592995e-12
11391575.831516629 1.3141149216414286e-12
11399221.184423689 1.2648285900923987e-12
11406866.537330747 1.2173907593385233e-12
11414511.890237805 1.1717321007224856e-12
11422157.243144862 1.1277858857820915e-12
11429802.59605192 1.0854878887290384e-12
11437447.948958978 1.0447762925852889e-12
11445093.301866036 1.0055915988397894e-12
11452738.654773096 9.6787654049357566e-13
11460384.007680153 9.3157599836618204e-13
11468029.360587211 8.9663692054090675e-13
11475674.713494269 8.6300824483142705e-13
11483320.066401327 8.3064082415624927e-13
11490965.419308385 7.994873547120547e-13
11498610.772215445 7.6950230684091949e-13
11506256.125122502 7.406418584903859e-13
11513901.47802956 7.1286383116912163e-13
11521546.830936618 6.8612762830459772e-13
11529192.183843676 6.6039417591268371e-13
11536837.536750734 6.3562586549245322e-13
11544482.889657792 6.11786499062719e-13
11552128.242564851 5.8884123626000906e-13
11559773.595471909 5.6675654342066976e-13
11567418.948378967 5.4550014457260156e-13
11575064.301286025 5.2504097426513778e-13
11582709.654193083 5.0534913216800424e-13
11590355.007100141 4.8639583937308693e-13
11598000.3600072 4.681533963351014e-13
11605645.712914258 4.5059514238973778e-13
11613291.065821316 4.3369541679004894e-13
11620936.418728374 4.174295212042171e-13
11628581.771635432 4.0177368361984496e-13
11636227.12454249 3.8670502360202491e-13
11643872.477449547 3.7220151885442407e-13
11651517.830356607 3.582419730344908e-13
11659163.183263665 3.4480598477579468e-13
11666808.536170723 3.318739178721499e-13
11674453.889077781 3.1942687258003172e-13
11682099.241984839 3.0744665799729177e-13
11689744.594891896 2.9591576547781233e-13
11697389.947798956 2.8481734304326062e-13
11705035.300706014 2.741351707545494e-13
11712680.653613072 2.6385363700696846e-13
11720326.00652013 2.5395771571441074e-13
11727971.359427188 2.4443294434928769e-13
11735616.712334245 2.3526540280607673e-13
11743262.065241303 2.2644169305759395e-13
11750907.418148363 2.1794891957426731e-13
11758552.771055421 2.0977467047779579e-13